-5.56640625, 4.98046875, -6.54296875, 69.5999984741211, 7.349999904632568, -105.0, -0.40458014607429504, 0.8778625726699829, -0.030534351244568825, 7.919921875, -0.380859375, -5.576171875, 141.75, -335.3999938964844, 79.19999694824219, -7.4122138023376465, -11.725191116333008, 3.717557191848755, -8.8037109375, -0.8984375, 4.7900390625, 27.450000762939453, 61.5, 108.1500015258789, 12.435114860534668, -11.595419883728027, -3.5496182441711426, -9.7119140625, -0.107421875, 2.529296875, 61.95000076293945, 57.599998474121094, 44.099998474121094, 3.5877861976623535, -7.488549709320068, 1.5190839767456055, -9.1259765625, -1.73828125, 3.974609375, 24.450000762939453, -22.950000762939453, 42.75, 5.2366414070129395, -1.503816843032837, -1.0, -3.9453125, 1.3916015625, 9.0673828125, -12.75, 1.9500000476837158, 56.25, 3.961832046508789, -2.70992374420166, 1.8702290058135986, 68797848.0
-5.5322265625, 5.0732421875, -6.7138671875, 71.69999694824219, 7.650000095367432, -104.4000015258789, 0.7175572514533997, 5.068702220916748, -0.5038167834281921, 7.98828125, -0.4541015625, -5.60546875, 141.60000610351562, -340.04998779296875, 79.80000305175781, -7.137404441833496, -9.389312744140625, 1.6641221046447754, -8.7158203125, -0.830078125, 4.697265625, 27.600000381469727, 60.900001525878906, 108.0, 9.465648651123047, -7.229007720947266, -4.633587837219238, -9.7021484375, -0.05859375, 2.412109375, 61.95000076293945, 57.599998474121094, 42.150001525878906, 11.465648651123047, -7.137404441833496, 0.6564885377883911, -8.798828125, -2.01171875, 3.9501953125, 25.799999237060547, -23.25, 45.150001525878906, 0.04580152779817581, -4.076335906982422, -1.198473334312439, -3.9208984375, 1.5087890625, 9.04296875, -12.75, 1.9500000476837158, 56.25, 3.1908397674560547, -3.0152671337127686, -0.15267175436019897, 68809568.0
-5.4638671875, 5.1123046875, -6.5771484375, 71.25, 7.800000190734863, -104.0999984741211, 0.5572519302368164, 1.1679389476776123, -2.244274854660034, 8.115234375, -0.6494140625, -5.732421875, 141.60000610351562, -340.04998779296875, 79.80000305175781, -8.480916023254395, -6.610687255859375, -0.5114504098892212, -8.5888671875, -0.791015625, 4.697265625, 26.100000381469727, 62.54999923706055, 108.30000305175781, 8.748091697692871, -12.137404441833496, -3.534351110458374, -9.560546875, -0.1953125, 2.4169921875, 61.79999923706055, 57.45000076293945, 43.95000076293945, -0.5190839767456055, -5.137404441833496, -2.9770991802215576, -8.935546875, -1.8505859375, 4.1357421875, 24.149999618530273, -23.399999618530273, 43.650001525878906, 3.221374034881592, 1.2137404680252075, -0.8778625726699829, -3.96484375, 1.3818359375, 8.896484375, -11.550000190734863, 1.5, 54.75, 1.3129770755767822, -3.0152671337127686, -2.396946668624878, 68821288.0
-5.4541015625, 5.01953125, -6.5185546875, 71.69999694824219, 7.650000095367432, -104.69999694824219, -0.8015267252922058, 0.5038167834281921, -0.11450381577014923, 8.0859375, -0.849609375, -5.7177734375, 143.85000610351562, -342.0, 77.55000305175781, -1.7175573110580444, -2.7938930988311768, -1.0152671337127686, -8.4228515625, -0.8935546875, 4.658203125, 25.049999237060547, 61.79999923706055, 107.25, 6.633587837219238, -5.381679534912109, -1.2748091220855713, -9.51171875, -0.048828125, 2.451171875, 61.650001525878906, 58.04999923706055, 44.400001525878906, 8.854961395263672, -5.122137546539307, -2.4122138023376465, -8.9599609375, -2.0263671875, 3.9794921875, 25.350000381469727, -22.649999618530273, 42.900001525878906, 4.0, -2.007633686065674, -2.5267176628112793, -3.8525390625, 1.30859375, 9.072265625, -11.550000190734863, 1.5, 54.75, 0.3206107020378113, 1.1908396482467651, -2.541984796524048, 68833008.0
-5.4638671875, 5.166015625, -6.5869140625, 72.1500015258789, 6.900000095367432, -103.94999694824219, -2.1297709941864014, 4.770992279052734, -2.9847328662872314, 8.0322265625, -0.6494140625, -5.5810546875, 143.85000610351562, -342.0, 77.55000305175781, 6.679389476776123, -2.85496187210083, -3.755725145339966, -8.564453125, -0.732421875, 4.5458984375, 25.049999237060547, 61.79999923706055, 107.25, 0.39694657921791077, -9.977099418640137, -2.435114622116089, -9.5458984375, 0.0341796875, 2.412109375, 62.54999923706055, 58.650001525878906, 43.20000076293945, 2.603053331375122, -3.7251908779144287, -1.5267175436019897, -8.9453125, -2.03125, 4.0771484375, 22.799999237060547, -22.649999618530273, 43.20000076293945, 5.045801639556885, 1.2137404680252075, 0.1679389327764511, -3.955078125, 1.337890625, 8.96484375, -9.899999618530273, 1.649999976158142, 54.900001525878906, 0.6259542107582092, -0.30534350872039795, -2.5877861976623535, 68844728.0
-5.3173828125, 5.1171875, -6.650390625, 72.1500015258789, 6.900000095367432, -103.94999694824219, -1.770992398262024, 1.7251908779144287, -1.3587785959243774, 8.1591796875, -0.5615234375, -5.5029296875, 143.39999389648438, -343.5, 77.55000305175781, 9.526717185974121, -6.648855209350586, -2.2061069011688232, -8.61328125, -0.7373046875, 4.638671875, 26.850000381469727, 60.900001525878906, 108.0, -4.358778476715088, -4.839694499969482, 1.839694619178772, -9.6728515625, 0.107421875, 2.431640625, 62.54999923706055, 58.650001525878906, 43.20000076293945, 0.6488549709320068, -3.816793918609619, -0.1679389327764511, -9.1015625, -1.796875, 4.0283203125, 22.799999237060547, -22.649999618530273, 43.20000076293945, 7.312977313995361, -1.267175555229187, 0.39694657921791077, -3.935546875, 1.2841796875, 9.1552734375, -12.449999809265137, 3.450000047683716, 55.79999923706055, 0.5190839767456055, -1.9847328662872314, -1.4809160232543945, 68856448.0
-5.41015625, 5.1416015625, -6.650390625, 71.69999694824219, 8.399999618530273, -105.44999694824219, -0.5114504098892212, 2.0839693546295166, 0.221374049782753, 8.06640625, -0.3271484375, -5.576171875, 142.1999969482422, -341.3999938964844, 77.69999694824219, 12.572519302368164, -3.572519063949585, -4.022900581359863, -8.9599609375, -0.7763671875, 4.6044921875, 26.100000381469727, 60.900001525878906, 108.0, -7.900763511657715, -2.6183207035064697, 2.3664121627807617, -9.62890625, -0.068359375, 2.314453125, 61.20000076293945, 56.54999923706055, 44.099998474121094, -3.9770991802215576, -2.6183207035064697, 2.427480936050415, -9.0869140625, -1.7333984375, 3.9990234375, 24.899999618530273, -23.100000381469727, 43.95000076293945, -3.534351110458374, 1.3129770755767822, 4.335877895355225, -3.9794921875, 1.3818359375, 9.091796875, -10.050000190734863, 2.25, 55.5, -0.16030535101890564, -3.6564886569976807, -0.9007633328437805, 68868160.0
-5.6005859375, 5.078125, -6.6064453125, 71.55000305175781, 7.5, -105.5999984741211, -2.786259651184082, -2.3358778953552246, -0.8167939186096191, 8.095703125, -0.2294921875, -5.4931640625, 142.1999969482422, -341.3999938964844, 77.69999694824219, 13.32824420928955, -11.007633209228516, -0.7633587718009949, -8.7109375, -0.9375, 4.619140625, 25.5, 62.400001525878906, 108.5999984741211, -7.931297779083252, -4.4809160232543945, -4.297709941864014, -9.7021484375, -0.01953125, 2.197265625, 61.20000076293945, 56.54999923706055, 44.099998474121094, -3.969465732574463, 0.4122137427330017, 0.5190839767456055, -8.9453125, -1.8896484375, 4.033203125, 26.100000381469727, -21.899999618530273, 42.900001525878906, 1.6870229244232178, 1.2977099418640137, 0.8931297659873962, -4.21875, 1.3818359375, 9.0673828125, -10.050000190734863, 2.25, 55.5, -0.06870228797197342, -0.5419847369194031, -0.6870229244232178, 68879880.0
-5.4736328125, 4.9365234375, -6.7236328125, 71.4000015258789, 6.599999904632568, -103.6500015258789, 0.3206107020378113, -1.9007633924484253, 1.6641221046447754, 8.1298828125, 0.0048828125, -5.546875, 142.64999389648438, -336.75, 79.80000305175781, 10.015267372131348, -8.885496139526367, 0.04580152779817581, -8.876953125, -0.869140625, 4.619140625, 25.5, 62.400001525878906, 108.5999984741211, -8.603053092956543, -2.885496139526367, -0.23664122819900513, -9.82421875, -0.15625, 2.3779296875, 61.650001525878906, 56.54999923706055, 44.400001525878906, -3.8396947383880615, 0.7938931584358215, 3.2748091220855713, -9.0185546875, -1.7333984375, 4.04296875, 25.5, -24.75, 44.54999923706055, -3.7022900581359863, 4.29007625579834, 5.992366313934326, -4.08203125, 1.416015625, 9.1748046875, -11.100000381469727, 1.350000023841858, 56.70000076293945, 0.1221374049782753, -3.4503817558288574, -0.8320610523223877, 68892576.0
-5.5126953125, 5.1416015625, -6.7041015625, 71.0999984741211, 7.650000095367432, -104.4000015258789, 0.09923664480447769, -3.671755790710449, 3.9083969593048096, 8.02734375, -0.2001953125, -5.712890625, 142.64999389648438, -336.75, 79.80000305175781, 2.778625965118408, -5.938931465148926, -0.221374049782753, -8.955078125, -0.888671875, 4.7607421875, 26.100000381469727, 60.900001525878906, 108.30000305175781, -4.4809160232543945, -7.961832046508789, 0.22900763154029846, -9.677734375, -0.05859375, 2.4365234375, 61.79999923706055, 57.45000076293945, 43.5, 3.5496182441711426, 4.656488418579102, -1.0152671337127686, -9.1162109375, -1.8994140625, 4.0087890625, 25.200000762939453, -22.950000762939453, 42.75, 1.2213740348815918, 6.320610523223877, 5.122137546539307, -4.1357421875, 1.2841796875, 9.2041015625, -11.100000381469727, 1.350000023841858, 56.70000076293945, -1.610687017440796, 0.9160305261611938, -2.221374034881592, 68904296.0
-5.5322265625, 5.13671875, -6.787109375, 72.0, 7.800000190734863, -103.80000305175781, 0.847328245639801, -2.427480936050415, 2.4885497093200684, 8.22265625, -0.390625, -5.634765625, 143.5500030517578, -336.45001220703125, 81.30000305175781, 2.8473281860351562, -3.427480936050415, 0.10687022656202316, -8.7060546875, -0.888671875, 4.921875, 27.0, 61.5, 107.8499984741211, -6.358778476715088, -5.916030406951904, 0.8702290058135986, -9.873046875, -0.263671875, 2.4365234375, 61.20000076293945, 57.599998474121094, 44.849998474121094, -5.427480697631836, 1.6259541511535645, 2.862595319747925, -8.9306640625, -1.9970703125, 4.0625, 25.649999618530273, -22.649999618530273, 44.25, 1.5801526308059692, 9.16030502319336, 3.3358778953552246, -4.0283203125, 1.3818359375, 9.2041015625, -11.100000381469727, 2.8499999046325684, 55.20000076293945, -0.221374049782753, -0.9770992398262024, -4.267175674438477, 68916016.0
-5.4833984375, 5.166015625, -6.73828125, 72.0, 7.800000190734863, -103.80000305175781, 3.2595419883728027, -1.5801526308059692, 1.4809160232543945, 8.0859375, -0.5859375, -5.8447265625, 144.4499969482422, -337.5, 82.94999694824219, 6.381679534912109, -2.7022900581359863, 0.16030535101890564, -8.798828125, -0.908203125, 4.775390625, 26.100000381469727, 61.79999923706055, 108.30000305175781, -6.56488561630249, -5.045801639556885, 2.0610687732696533, -9.6875, -0.1025390625, 2.5048828125, 63.150001525878906, 59.25, 44.099998474121094, 1.770992398262024, 0.6183205842971802, 0.580152690410614, -9.0087890625, -1.943359375, 4.1845703125, 25.649999618530273, -22.649999618530273, 44.25, 0.6183205842971802, 8.175572395324707, 5.465648651123047, -3.9794921875, 1.3330078125, 9.16015625, -11.100000381469727, 2.0999999046325684, 54.900001525878906, 0.23664122819900513, 0.9465649127960205, -5.6946563720703125, 68927736.0
-5.4345703125, 5.078125, -6.69921875, 71.69999694824219, 7.650000095367432, -105.0, 1.770992398262024, -1.4732824563980103, 3.007633686065674, 8.115234375, -0.7861328125, -5.7421875, 145.9499969482422, -337.5, 83.69999694824219, 7.450381755828857, -3.0839695930480957, -2.3435113430023193, -8.7646484375, -1.025390625, 4.912109375, 26.25, 60.75, 110.8499984741211, -5.007633686065674, -6.190839767456055, 1.4732824563980103, -9.921875, -0.0634765625, 2.6171875, 61.95000076293945, 57.29999923706055, 43.650001525878906, -1.7862595319747925, -0.49618321657180786, 2.137404680252075, -9.267578125, -1.8408203125, 4.1748046875, 25.5, -24.0, 44.54999923706055, 0.7557252049446106, 4.557251930236816, 4.43511438369751, -4.150390625, 1.435546875, 9.2626953125, -11.100000381469727, 1.350000023841858, 55.650001525878906, -2.2671756744384766, 2.7633588314056396, -2.2290077209472656, 68939456.0
-5.458984375, 5.0537109375, -6.6357421875, 70.6500015258789, 7.949999809265137, -105.44999694824219, 2.5267176628112793, -2.282442808151245, 3.221374034881592, 8.232421875, -0.7080078125, -5.7861328125, 144.4499969482422, -338.54998779296875, 85.80000305175781, 10.732824325561523, -0.37404578924179077, -2.7633588314056396, -8.8134765625, -0.9228515625, 5.1611328125, 25.5, 62.400001525878906, 110.0999984741211, -11.725191116333008, 1.0229008197784424, 0.2671755850315094, -9.8291015625, -0.2001953125, 2.6708984375, 61.20000076293945, 57.29999923706055, 43.650001525878906, -2.282442808151245, -2.4885497093200684, 3.961832046508789, -9.2578125, -1.875, 4.1650390625, 24.75, -23.700000762939453, 44.099998474121094, -2.5954198837280273, 1.0305343866348267, 1.6870229244232178, -4.111328125, 1.3427734375, 9.2236328125, -11.100000381469727, 1.350000023841858, 55.650001525878906, 2.419847249984741, -0.290076345205307, 1.3358778953552246, 68951168.0
-5.517578125, 5.01953125, -6.9140625, 70.6500015258789, 7.949999809265137, -105.44999694824219, 0.3435114622116089, 1.1297709941864014, 1.0610686540603638, 8.1298828125, -0.4736328125, -5.83984375, 145.35000610351562, -337.20001220703125, 85.94999694824219, 10.358778953552246, -7.14503812789917, -3.541984796524048, -8.9208984375, -1.123046875, 5.048828125, 26.549999237060547, 61.349998474121094, 109.5, -6.114503860473633, -1.6030534505844116, 4.442748069763184, -9.873046875, -0.1904296875, 2.5634765625, 62.70000076293945, 56.849998474121094, 43.349998474121094, -5.511450290679932, -1.9465649127960205, -1.7633588314056396, -9.111328125, -1.8798828125, 3.955078125, 25.5, -22.200000762939453, 44.54999923706055, 1.5954198837280273, 1.3129770755767822, 0.9007633328437805, -4.2431640625, 1.455078125, 9.287109375, -11.399999618530273, -0.15000000596046448, 54.900001525878906, 1.6564885377883911, -4.381679534912109, -1.534351110458374, 68962888.0
-5.6103515625, 5.0439453125, -6.8798828125, 70.94999694824219, 7.5, -104.0999984741211, 0.19847328960895538, -3.183206081390381, 0.9694656729698181, 8.193359375, -0.3369140625, -5.8642578125, 143.85000610351562, -334.79998779296875, 86.8499984741211, 8.053435325622559, -8.641221046447754, -0.9770992398262024, -9.00390625, -0.8935546875, 5.0244140625, 28.200000762939453, 61.5, 109.3499984741211, -0.7786259651184082, -5.671755790710449, 0.25954198837280273, -9.873046875, -0.2294921875, 2.470703125, 61.650001525878906, 57.599998474121094, 43.650001525878906, 1.877862572669983, -6.022900581359863, 0.07633587718009949, -9.3017578125, -1.748046875, 4.0185546875, 25.5, -22.200000762939453, 43.79999923706055, -1.3129770755767822, 0.11450381577014923, -0.9923664331436157, -4.091796875, 1.3330078125, 9.1455078125, -11.399999618530273, -0.15000000596046448, 54.900001525878906, -2.5114502906799316, 0.5419847369194031, -4.0916032791137695, 68974608.0
-5.5126953125, 4.98046875, -6.884765625, 71.55000305175781, 7.800000190734863, -105.5999984741211, 3.0916030406951904, -3.503816843032837, 0.572519063949585, 8.1494140625, -0.1611328125, -5.7958984375, 144.3000030517578, -333.45001220703125, 87.44999694824219, 3.603053331375122, -4.41984748840332, -1.7862595319747925, -8.9990234375, -0.8544921875, 4.8486328125, 26.25, 62.70000076293945, 110.8499984741211, 1.9923664331436157, -7.4122138023376465, -0.21374045312404633, -9.833984375, -0.1416015625, 2.373046875, 61.650001525878906, 57.599998474121094, 43.650001525878906, 3.7404580116271973, -5.824427604675293, 2.358778715133667, -9.2138671875, -1.8798828125, 4.169921875, 25.5, -22.200000762939453, 43.79999923706055, 9.099236488342285, -2.70992374420166, -6.312977313995361, -4.31640625, 1.2255859375, 9.1650390625, -11.25, 1.9500000476837158, 55.5, 4.473282337188721, -2.068702220916748, -1.7404580116271973, 68986328.0
-5.44921875, 5.01953125, -6.9189453125, 72.44999694824219, 7.650000095367432, -106.3499984741211, 2.778625965118408, -0.28244274854660034, 1.0687023401260376, 8.173828125, -0.1025390625, -5.6884765625, 143.25, -331.20001220703125, 86.25, -5.328244209289551, 0.8625954389572144, -1.7557251453399658, -8.92578125, -1.0546875, 4.9560546875, 26.25, 62.70000076293945, 110.8499984741211, 9.473282814025879, -10.259542465209961, -0.9312977194786072, -9.814453125, -0.2099609375, 2.373046875, 62.400001525878906, 57.29999923706055, 44.849998474121094, 7.045801639556885, -9.519083976745605, -3.679389238357544, -9.140625, -1.748046875, 4.23828125, 25.5, -22.5, 42.75, 2.2977099418640137, -4.015267372131348, -2.221374034881592, -4.1796875, 1.396484375, 9.1357421875, -11.100000381469727, 2.0999999046325684, 55.20000076293945, -1.6870229244232178, -3.389312982559204, -2.748091697692871, 68998048.0
-5.556640625, 5.0, -6.8408203125, 70.6500015258789, 7.949999809265137, -105.75, 1.4885495901107788, 2.541984796524048, -1.5496183633804321, 8.1103515625, -0.25390625, -5.5859375, 143.25, -333.1499938964844, 85.6500015258789, -9.145038604736328, -3.4122138023376465, 2.6946566104888916, -8.73046875, -0.849609375, 4.90234375, 25.5, 61.5, 109.6500015258789, 14.335878372192383, -12.824427604675293, -1.2595419883728027, -9.86328125, 0.1171875, 2.529296875, 62.400001525878906, 57.29999923706055, 44.849998474121094, 7.5877861976623535, -13.259542465209961, 0.32824426889419556, -9.16015625, -1.97265625, 3.984375, 25.200000762939453, -22.950000762939453, 43.04999923706055, 3.328244209289551, -2.70992374420166, -2.0534350872039795, -4.052734375, 1.3916015625, 9.130859375, -11.850000381469727, 1.350000023841858, 54.45000076293945, 0.8625954389572144, -2.114503860473633, 1.465648889541626, 69009768.0
-5.4833984375, 4.970703125, -6.669921875, 70.3499984741211, 7.349999904632568, -106.3499984741211, 2.465648889541626, -0.7404580116271973, 2.4732823371887207, 8.1005859375, -0.263671875, -5.5859375, 142.64999389648438, -333.0, 84.75, -10.755724906921387, -6.297709941864014, 5.7633585929870605, -8.6572265625, -0.859375, 4.86328125, 26.100000381469727, 62.099998474121094, 109.05000305175781, 13.244275093078613, -10.61832046508789, -4.496183395385742, -9.697265625, 0.048828125, 2.392578125, 62.70000076293945, 58.5, 41.849998474121094, 14.847328186035156, -11.145038604736328, 1.6488549709320068, -9.033203125, -1.8603515625, 4.1650390625, 25.350000381469727, -23.850000381469727, 42.45000076293945, 5.038167953491211, -4.496183395385742, -4.977099418640137, -4.1064453125, 1.46484375, 9.0771484375, -10.350000381469727, 1.649999976158142, 54.45000076293945, -0.9160305261611938, -4.503816604614258, 3.0229008197784424, 69022464.0
-5.703125, 5.05859375, -6.6943359375, 71.4000015258789, 6.599999904632568, -105.44999694824219, 0.4198473393917084, 1.0152671337127686, -1.801526665687561, 8.1494140625, -0.29296875, -5.595703125, 142.5, -335.70001220703125, 83.0999984741211, -15.625954627990723, -5.656488418579102, 3.7404580116271973, -8.8134765625, -0.908203125, 4.74609375, 25.350000381469727, 60.599998474121094, 109.05000305175781, 17.290077209472656, -9.625954627990723, -6.29007625579834, -9.90234375, 0.048828125, 2.333984375, 61.20000076293945, 57.599998474121094, 43.650001525878906, 11.038167953491211, -13.343511581420898, -2.603053331375122, -9.228515625, -1.7041015625, 4.0478515625, 22.950000762939453, -22.950000762939453, 43.79999923706055, 3.1984732151031494, -4.267175674438477, -4.030534267425537, -4.248046875, 1.4208984375, 9.0380859375, -13.199999809265137, 1.5, 54.75, 2.0534350872039795, -3.7404580116271973, 1.4885495901107788, 69034176.0
-5.517578125, 5.087890625, -6.7041015625, 72.44999694824219, 7.349999904632568, -105.0, 0.09923664480447769, -1.6030534505844116, -4.5877861976623535, 8.0615234375, -0.44921875, -5.5908203125, 144.75, -336.1499938964844, 83.0999984741211, -14.229007720947266, -8.343511581420898, 1.267175555229187, -8.779296875, -0.8203125, 4.8291015625, 28.049999237060547, 63.0, 108.75, 15.41984748840332, -10.374045372009277, -6.190839767456055, -9.765625, 0.05859375, 2.353515625, 60.45000076293945, 57.599998474121094, 42.599998474121094, 8.358778953552246, -5.366412162780762, -1.8854961395263672, -9.072265625, -1.7529296875, 4.04296875, 24.899999618530273, -24.600000381469727, 44.70000076293945, 7.793893337249756, -5.6946563720703125, -5.351145267486572, -4.1748046875, 1.50390625, 9.1064453125, -13.199999809265137, 1.5, 54.75, 1.4732824563980103, -5.1984734535217285, 3.068702220916748, 69045896.0
-5.546875, 4.9755859375, -6.5673828125, 71.69999694824219, 7.949999809265137, -105.75, -1.3435114622116089, 2.9465649127960205, -0.42748090624809265, 8.193359375, -0.5322265625, -5.576171875, 145.8000030517578, -338.3999938964844, 82.05000305175781, -11.351144790649414, -9.374045372009277, 5.3740458488464355, -8.65234375, -0.8203125, 4.658203125, 26.850000381469727, 60.599998474121094, 108.30000305175781, 12.053435325622559, -11.625954627990723, -4.3740458488464355, -9.62890625, 0.0048828125, 2.333984375, 63.0, 57.900001525878906, 43.95000076293945, 6.572519302368164, -7.320610523223877, -3.603053331375122, -9.0771484375, -1.9775390625, 4.0185546875, 24.899999618530273, -24.600000381469727, 44.70000076293945, 0.6717557311058044, -0.9236641526222229, -0.9083969593048096, -3.9990234375, 1.2646484375, 9.2236328125, -10.649999618530273, 2.8499999046325684, 54.900001525878906, 0.04580152779817581, -2.648854970932007, 4.572519302368164, 69057616.0
-5.3515625, 4.9755859375, -6.66015625, 72.9000015258789, 8.699999809265137, -105.44999694824219, -1.3740458488464355, 3.396946668624878, -3.9160306453704834, 8.0859375, -0.6494140625, -5.673828125, 145.1999969482422, -341.54998779296875, 79.3499984741211, -7.312977313995361, -8.732824325561523, 0.885496199131012, -8.857421875, -0.849609375, 4.6044921875, 27.299999237060547, 63.0, 107.55000305175781, 11.916030883789062, -10.80152702331543, -4.152671813964844, -9.7265625, -0.09765625, 2.3876953125, 61.5, 57.900001525878906, 42.75, 9.526717185974121, -10.335878372192383, -1.0458015203475952, -9.1357421875, -1.8505859375, 4.072265625, 25.350000381469727, -22.649999618530273, 43.20000076293945, 10.122137069702148, -2.137404680252075, -1.8091603517532349, -4.140625, 1.3427734375, 9.1650390625, -11.25, 0.75, 55.79999923706055, 0.8702290058135986, 1.4580153226852417, -0.25954198837280273, 69069336.0
-5.4736328125, 5.107421875, -6.7578125, 69.75, 7.800000190734863, -105.1500015258789, -3.2748091220855713, 2.7633588314056396, -0.8244274854660034, 8.1640625, -0.5810546875, -5.68359375, 145.9499969482422, -342.75, 77.25, -2.85496187210083, -8.687023162841797, 0.17557251453399658, -8.916015625, -0.7958984375, 4.609375, 27.299999237060547, 63.0, 107.55000305175781, 5.549618244171143, -11.343511581420898, -4.511450290679932, -9.6923828125, -0.0439453125, 2.32421875, 62.25, 58.20000076293945, 43.5, 4.969465732574463, -5.038167953491211, -3.580152750015259, -9.0283203125, -1.796875, 4.091796875, 24.600000381469727, -22.350000381469727, 44.70000076293945, 1.7251908779144287, 0.6259542107582092, -3.3129770755767822, -4.091796875, 1.3330078125, 9.04296875, -10.800000190734863, 1.0499999523162842, 55.5, -1.2519084215164185, -4.671755790710449, 3.0152671337127686, 69081056.0
-5.4345703125, 5.263671875, -6.7333984375, 72.0, 7.050000190734863, -105.1500015258789, -2.2748091220855713, 3.358778715133667, -1.7022900581359863, 8.076171875, -0.712890625, -5.634765625, 145.64999389648438, -345.29998779296875, 76.19999694824219, 7.137404441833496, -14.061068534851074, 0.572519063949585, -8.80859375, -0.7470703125, 4.5654296875, 26.549999237060547, 62.099998474121094, 108.30000305175781, -1.389312982559204, -7.8015265464782715, -3.9083969593048096, -9.58984375, -0.009765625, 2.255859375, 61.5, 57.0, 43.95000076293945, -0.8091602921485901, -3.435114622116089, -6.320610523223877, -8.9501953125, -1.9482421875, 4.052734375, 24.600000381469727, -22.350000381469727, 44.70000076293945, 1.6335878372192383, -0.3435114622116089, -4.870229244232178, -3.9599609375, 1.2890625, 9.12109375, -10.800000190734863, 1.9500000476837158, 54.29999923706055, 1.4732824563980103, -2.8702290058135986, 5.41984748840332, 69092776.0
-5.380859375, 5.185546875, -6.66015625, 72.0, 7.050000190734863, -105.1500015258789, -1.7862595319747925, 2.7251908779144287, -3.0229008197784424, 8.06640625, -0.5419921875, -5.703125, 144.75, -345.1499938964844, 76.6500015258789, 10.190839767456055, -8.435114860534668, 1.2442748546600342, -8.818359375, -0.7275390625, 4.55078125, 25.950000762939453, 62.70000076293945, 108.9000015258789, -3.7251908779144287, -8.465648651123047, 0.7786259651184082, -9.70703125, -0.0390625, 2.1875, 61.95000076293945, 58.5, 43.349998474121094, -3.114503860473633, -4.809160232543945, -2.748091697692871, -9.033203125, -1.9775390625, 4.0185546875, 24.75, -23.25, 43.79999923706055, -4.641221523284912, 1.0076335668563843, 2.572519063949585, -3.9990234375, 1.201171875, 9.2724609375, -9.899999618530273, 1.649999976158142, 55.20000076293945, -1.3664121627807617, 1.7480915784835815, 0.18320611119270325, 69104496.0
-5.37109375, 5.0732421875, -6.728515625, 72.0, 7.050000190734863, -105.1500015258789, 0.22900763154029846, 5.244274616241455, 0.47328245639801025, 8.173828125, -0.390625, -5.7861328125, 145.0500030517578, -344.3999938964844, 77.0999984741211, 14.916030883789062, -6.610687255859375, -1.5954198837280273, -9.033203125, -0.91796875, 4.6337890625, 26.700000762939453, 63.150001525878906, 108.5999984741211, -10.51145076751709, -3.458015203475952, -2.0534350872039795, -9.853515625, -0.0537109375, 2.36328125, 62.54999923706055, 57.0, 43.95000076293945, -2.14503812789917, -0.7404580116271973, 1.8702290058135986, -9.2138671875, -1.8603515625, 4.2138671875, 24.75, -23.25, 43.79999923706055, 0.038167938590049744, 3.0534350872039795, 0.1679389327764511, -4.072265625, 1.240234375, 9.072265625, -9.899999618530273, 1.649999976158142, 55.20000076293945, 1.389312982559204, -0.48091602325439453, 1.4732824563980103, 69116208.0
-5.5029296875, 5.078125, -6.6455078125, 70.94999694824219, 6.300000190734863, -106.19999694824219, -1.122137427330017, 1.7022900581359863, -2.580152750015259, 8.22265625, -0.3955078125, -5.693359375, 143.10000610351562, -342.75, 78.5999984741211, 16.893129348754883, -8.229007720947266, 0.5190839767456055, -8.8330078125, -0.64453125, 4.638671875, 26.700000762939453, 63.150001525878906, 108.5999984741211, -11.862595558166504, -7.038167953491211, 4.251908302307129, -9.78515625, 0.0146484375, 2.3388671875, 62.25, 57.45000076293945, 43.95000076293945, -7.778625965118408, -2.183206081390381, -0.3358778655529022, -8.96484375, -2.0703125, 3.9697265625, 25.200000762939453, -22.5, 43.79999923706055, -7.351145267486572, 1.6641221046447754, 5.992366313934326, -3.9013671875, 1.2646484375, 9.2041015625, -10.5, 0.30000001192092896, 55.04999923706055, -2.885496139526367, -4.656488418579102, -4.404580116271973, 69127928.0
-5.4345703125, 5.0390625, -6.7138671875, 72.44999694824219, 7.650000095367432, -103.6500015258789, 0.4351145029067993, 2.2748091220855713, -1.7175573110580444, 8.134765625, -0.33203125, -5.52734375, 143.5500030517578, -341.3999938964844, 80.25, 18.732824325561523, -15.87022876739502, -0.35877862572669983, -8.720703125, -0.8154296875, 4.6337890625, 25.5, 62.400001525878906, 109.6500015258789, -14.564885139465332, -7.70992374420166, 3.427480936050415, -9.6337890625, -0.2392578125, 2.373046875, 62.25, 57.45000076293945, 43.95000076293945, -8.030534744262695, -0.007633587811142206, 3.5267176628112793, -8.8671875, -1.884765625, 4.1015625, 24.450000762939453, -22.200000762939453, 42.75, -1.5419847965240479, 7.534351348876953, 2.755725145339966, -3.818359375, 1.318359375, 9.0869140625, -12.149999618530273, 1.649999976158142, 54.900001525878906, 0.4656488597393036, -1.503816843032837, 0.2748091518878937, 69139648.0
-5.37109375, 5.1513671875, -6.6455078125, 72.44999694824219, 7.650000095367432, -103.6500015258789, -0.4885496199131012, 2.213740348815918, 1.572519063949585, 7.9345703125, -0.25390625, -5.7177734375, 143.5500030517578, -341.3999938964844, 80.25, 14.946564674377441, -5.213740348815918, 0.8244274854660034, -8.720703125, -0.95703125, 4.7119140625, 27.0, 61.20000076293945, 107.8499984741211, -8.977099418640137, -8.992366790771484, 3.1679389476776123, -9.4091796875, 0.0146484375, 2.5146484375, 61.04999923706055, 59.099998474121094, 43.95000076293945, -0.9389312863349915, 0.11450381577014923, 0.7099236845970154, -8.9794921875, -1.865234375, 4.08203125, 24.75, -23.700000762939453, 43.04999923706055, 0.038167938590049744, 2.4503817558288574, 3.969465732574463, -3.974609375, 1.38671875, 9.0576171875, -9.899999618530273, 0.44999998807907104, 55.20000076293945, -3.435114622116089, -0.007633587811142206, -2.7709922790527344, 69151368.0
-5.4736328125, 4.9951171875, -6.572265625, 71.55000305175781, 8.25, -104.0999984741211, -0.6259542107582092, 1.0305343866348267, -3.85496187210083, 8.095703125, -0.341796875, -5.498046875, 143.10000610351562, -339.75, 81.1500015258789, 15.0, -1.0992366075515747, -1.0992366075515747, -8.6767578125, -0.8251953125, 4.84375, 25.799999237060547, 61.79999923706055, 108.75, -12.725191116333008, -8.374045372009277, 1.7022900581359863, -9.5947265625, 0.01953125, 2.5830078125, 62.25, 57.900001525878906, 45.45000076293945, -5.641221523284912, 0.42748090624809265, 2.0839693546295166, -8.955078125, -1.8603515625, 4.04296875, 25.799999237060547, -23.25, 44.099998474121094, -1.0458015203475952, 2.931297779083252, 4.0, -3.876953125, 1.3720703125, 9.04296875, -10.350000381469727, 2.0999999046325684, 55.95000076293945, 2.8702290058135986, -3.0839695930480957, 0.12977099418640137, 69163088.0
-5.4541015625, 5.0, -6.640625, 70.6500015258789, 8.399999618530273, -105.0, 0.6183205842971802, 0.06870228797197342, 0.8091602921485901, 8.0322265625, -0.5419921875, -5.5517578125, 143.10000610351562, -339.75, 81.1500015258789, 14.442748069763184, -4.740458011627197, 0.8702290058135986, -8.720703125, -0.9423828125, 4.8779296875, 26.549999237060547, 62.54999923706055, 109.5, -15.335878372192383, -5.137404441833496, 5.572519302368164, -9.5751953125, -0.0634765625, 2.5390625, 62.70000076293945, 57.599998474121094, 43.349998474121094, -5.442748069763184, -1.3740458488464355, -1.2977099418640137, -9.0283203125, -2.01171875, 4.169921875, 24.450000762939453, -22.950000762939453, 44.099998474121094, -0.7633587718009949, 1.2366411685943604, 1.6564885377883911, -4.0771484375, 1.3134765625, 9.150390625, -11.399999618530273, 0.44999998807907104, 54.45000076293945, 2.755725145339966, 0.4885496199131012, -0.221374049782753, 69174800.0
-5.361328125, 5.078125, -6.7578125, 72.0, 7.5, -104.55000305175781, -0.8625954389572144, 0.7175572514533997, 1.9236640930175781, 8.0615234375, -0.48828125, -5.3662109375, 141.4499969482422, -337.20001220703125, 81.0, 14.732824325561523, -8.038167953491211, 1.3511450290679932, -8.7451171875, -0.9814453125, 4.9462890625, 24.75, 59.54999923706055, 110.0999984741211, -13.648855209350586, -2.610687017440796, -1.503816843032837, -9.9951171875, -0.1416015625, 2.578125, 62.70000076293945, 57.599998474121094, 43.349998474121094, -6.664122104644775, 4.511450290679932, -1.1145038604736328, -9.1943359375, -2.0166015625, 4.0380859375, 24.450000762939453, -22.950000762939453, 44.099998474121094, -4.809160232543945, 0.847328245639801, 5.748091697692871, -4.1455078125, 1.279296875, 9.1748046875, -11.399999618530273, 0.44999998807907104, 54.45000076293945, -2.1984732151031494, -2.4045801162719727, 0.35877862572669983, 69187504.0
-5.546875, 5.0830078125, -6.9189453125, 70.5, 8.25, -104.8499984741211, -0.8396946787834167, -2.0610687732696533, 1.0152671337127686, 8.1005859375, -0.439453125, -5.5712890625, 144.0, -334.95001220703125, 82.80000305175781, 8.007633209228516, -8.015267372131348, -2.0992367267608643, -8.9453125, -1.318359375, 4.8095703125, 27.0, 63.150001525878906, 110.0999984741211, -10.068702697753906, -1.4580153226852417, 1.4503816366195679, -9.8681640625, -0.263671875, 2.5048828125, 62.70000076293945, 58.04999923706055, 44.099998474121094, -1.9770992994308472, 0.20610687136650085, -2.106870174407959, -9.1748046875, -1.9677734375, 4.0673828125, 25.5, -21.75, 44.099998474121094, 0.7480915784835815, -0.4122137427330017, 1.610687017440796, -4.12109375, 1.4404296875, 9.1943359375, -9.75, 1.5, 55.79999923706055, 1.5267175436019897, 1.0229008197784424, 0.42748090624809265, 69199216.0
-5.5224609375, 5.0244140625, -6.73828125, 72.0, 7.800000190734863, -104.0999984741211, 3.4732823371887207, -2.14503812789917, -3.221374034881592, 8.1494140625, -0.3857421875, -5.673828125, 144.0, -334.95001220703125, 82.80000305175781, 3.70992374420166, -6.4809160232543945, 0.4122137427330017, -9.033203125, -1.2255859375, 5.1318359375, 27.600000381469727, 61.349998474121094, 109.80000305175781, -2.8473281860351562, -7.488549709320068, 0.9236641526222229, -9.931640625, -0.458984375, 2.333984375, 62.54999923706055, 57.45000076293945, 43.5, -4.335877895355225, -0.7404580116271973, 1.3740458488464355, -9.2236328125, -2.0458984375, 3.9013671875, 24.149999618530273, -23.100000381469727, 43.95000076293945, -2.6946566104888916, 4.366412162780762, -1.7633588314056396, -4.052734375, 1.3330078125, 9.1455078125, -10.800000190734863, 1.9500000476837158, 55.04999923706055, 0.7862595319747925, -0.17557251453399658, -3.496183156967163, 69210936.0
-5.537109375, 5.087890625, -6.7822265625, 72.0, 7.800000190734863, -104.0999984741211, 3.14503812789917, -1.3587785959243774, -1.0763359069824219, 8.203125, -0.5712890625, -5.869140625, 143.10000610351562, -336.0, 84.30000305175781, 0.4580152630805969, -5.847328186035156, -3.007633686065674, -8.9013671875, -1.15234375, 5.087890625, 25.799999237060547, 62.54999923706055, 109.05000305175781, 4.137404441833496, -4.732824325561523, 0.39694657921791077, -9.7607421875, -0.4248046875, 2.4853515625, 63.150001525878906, 56.849998474121094, 44.099998474121094, 8.16030502319336, -5.870229244232178, -1.4732824563980103, -9.0771484375, -2.1240234375, 3.9599609375, 24.149999618530273, -23.100000381469727, 43.95000076293945, 5.648855209350586, 4.0, -2.8015267848968506, -4.00390625, 1.3232421875, 9.1748046875, -11.550000190734863, 0.30000001192092896, 56.25, -0.030534351244568825, -2.3740458488464355, -4.931297779083252, 69222656.0
-5.546875, 5.09765625, -6.640625, 72.30000305175781, 6.300000190734863, -105.1500015258789, 4.557251930236816, -1.3816794157028198, 1.0458015203475952, 8.1591796875, -0.400390625, -5.9326171875, 143.10000610351562, -336.0, 84.30000305175781, -3.8473281860351562, 0.5343511700630188, 0.30534350872039795, -8.8232421875, -0.9619140625, 4.951171875, 26.25, 62.400001525878906, 109.05000305175781, 11.656488418579102, -12.755724906921387, 1.496183156967163, -9.8291015625, -0.2392578125, 2.5390625, 62.25, 57.900001525878906, 43.95000076293945, 7.183206081390381, -7.030534267425537, -1.122137427330017, -8.90625, -1.9384765625, 4.12109375, 24.600000381469727, -22.350000381469727, 43.95000076293945, 2.648854970932007, 3.70992374420166, -2.396946668624878, -4.0966796875, 1.2939453125, 9.0966796875, -12.149999618530273, 2.8499999046325684, 54.45000076293945, -2.3740458488464355, -4.229007720947266, -2.389312982559204, 69234376.0
-5.6005859375, 5.1123046875, -6.5869140625, 71.55000305175781, 7.800000190734863, -104.0999984741211, 4.259541988372803, -0.30534350872039795, 1.9694656133651733, 8.06640625, -0.4443359375, -5.80078125, 144.0, -334.6499938964844, 86.25, -9.045801162719727, 4.633587837219238, -0.9236641526222229, -8.6767578125, -0.7861328125, 5.0439453125, 27.0, 62.400001525878906, 110.0999984741211, 12.67175579071045, -12.183206558227539, 2.0610687732696533, -9.6435546875, -0.17578125, 2.65625, 62.70000076293945, 58.79999923706055, 43.650001525878906, 12.122137069702148, -9.259542465209961, 3.5190839767456055, -9.013671875, -1.85546875, 4.140625, 26.25, -22.200000762939453, 43.79999923706055, 4.603053569793701, 0.7022900581359863, -6.3053436279296875, -3.84765625, 1.3037109375, 8.9697265625, -10.050000190734863, 1.0499999523162842, 55.04999923706055, -1.3740458488464355, -5.839694499969482, -4.679389476776123, 69246096.0
-5.576171875, 5.0048828125, -6.5625, 71.0999984741211, 7.949999809265137, -105.0, 0.9618320465087891, 0.3206107020378113, 0.8702290058135986, 8.0029296875, -0.5517578125, -5.5615234375, 144.0, -334.6499938964844, 86.25, -9.687023162841797, -0.7786259651184082, -3.6183207035064697, -8.681640625, -0.7421875, 4.78515625, 26.25, 63.150001525878906, 110.4000015258789, 12.16030502319336, -12.351144790649414, -0.20610687136650085, -9.6533203125, 0.21484375, 2.705078125, 61.20000076293945, 57.599998474121094, 42.150001525878906, 6.679389476776123, -10.664122581481934, -1.198473334312439, -8.92578125, -1.7578125, 4.2626953125, 24.600000381469727, -21.600000381469727, 43.650001525878906, 6.106870174407959, -2.7633588314056396, -4.312977313995361, -4.052734375, 1.26953125, 9.130859375, -10.050000190734863, 1.0499999523162842, 55.04999923706055, -2.4809160232543945, 1.9847328662872314, -1.7404580116271973, 69257808.0
-5.634765625, 5.1318359375, -6.640625, 72.30000305175781, 7.5, -105.5999984741211, 0.7251908183097839, 0.12977099418640137, 2.8778626918792725, 8.1787109375, -0.458984375, -5.4296875, 143.39999389648438, -336.29998779296875, 84.0, -5.534351348876953, -7.29007625579834, -2.4885497093200684, -8.7548828125, -0.8056640625, 4.94140625, 25.799999237060547, 63.0, 108.75, 9.435114860534668, -6.862595558166504, 0.08396946638822556, -9.7802734375, 0.244140625, 2.79296875, 61.20000076293945, 57.599998474121094, 42.150001525878906, 8.48854923248291, -7.885496139526367, -0.4198473393917084, -9.12109375, -1.69921875, 4.3701171875, 24.899999618530273, -23.100000381469727, 43.650001525878906, 2.3435113430023193, -1.7633588314056396, -3.6870229244232178, -4.1015625, 1.396484375, 9.1357421875, -11.25, 2.25, 54.29999923706055, 2.5877861976623535, -3.6870229244232178, 1.4045801162719727, 69269528.0
-5.4931640625, 5.1416015625, -6.7724609375, 71.69999694824219, 8.699999809265137, -103.94999694824219, -2.3435113430023193, -0.6793892979621887, -0.10687022656202316, 7.75390625, -0.146484375, -6.46484375, 144.3000030517578, -336.8999938964844, 83.4000015258789, -5.786259651184082, -10.366412162780762, -1.3358778953552246, -8.740234375, -0.7470703125, 4.8193359375, 25.799999237060547, 63.0, 108.75, 8.335877418518066, -5.122137546539307, -7.175572395324707, -9.7216796875, 0.1611328125, 2.392578125, 62.25, 58.20000076293945, 44.25, -2.8702290058135986, -7.56488561630249, -2.6564886569976807, -9.04296875, -1.7529296875, 4.1845703125, 24.600000381469727, -23.100000381469727, 43.650001525878906, 5.251908302307129, -4.068702220916748, -2.4122138023376465, -3.9599609375, 1.30859375, 9.12109375, -11.100000381469727, 1.649999976158142, 55.95000076293945, 4.267175674438477, -3.923664093017578, 3.3053436279296875, 69282224.0
-5.5322265625, 5.05859375, -6.572265625, 72.0, 8.550000190734863, -104.0999984741211, -2.7328243255615234, -0.3206107020378113, 1.8854961395263672, 8.173828125, -0.0439453125, -5.7373046875, 143.25, -336.45001220703125, 83.8499984741211, -5.748091697692871, -10.389312744140625, 1.8091603517532349, -8.7353515625, -1.09375, 4.5654296875, 24.450000762939453, 62.70000076293945, 108.9000015258789, 4.992366313934326, -2.3435113430023193, -8.526717185974121, -9.7509765625, -0.0439453125, 2.3291015625, 61.95000076293945, 58.5, 43.349998474121094, 3.106870174407959, -7.358778476715088, -5.6259541511535645, -9.0771484375, -1.787109375, 3.935546875, 26.399999618530273, -21.899999618530273, 44.25, -4.396946430206299, -8.007633209228516, 1.4885495901107788, -4.0380859375, 1.34765625, 9.189453125, -9.75, 1.5, 54.0, 1.1374045610427856, -0.7480915784835815, -0.10687022656202316, 69293944.0
-5.380859375, 5.068359375, -6.8017578125, 72.0, 8.550000190734863, -104.0999984741211, -1.839694619178772, 0.5114504098892212, -2.0152671337127686, 8.271484375, -0.2490234375, -5.8984375, 144.3000030517578, -336.1499938964844, 82.80000305175781, -12.954198837280273, -3.9541985988616943, -3.5496182441711426, -9.16015625, -0.9619140625, 4.5751953125, 26.850000381469727, 61.79999923706055, 109.5, 11.19847297668457, -7.206106662750244, -8.190839767456055, -9.833984375, -0.3369140625, 2.2802734375, 61.20000076293945, 56.099998474121094, 44.099998474121094, 1.5114504098892212, -9.030534744262695, -2.6870229244232178, -8.9697265625, -2.12890625, 3.9990234375, 26.25, -22.950000762939453, 44.099998474121094, 4.312977313995361, -1.106870174407959, -1.038167953491211, -4.0087890625, 1.2548828125, 9.1064453125, -11.550000190734863, 0.75, 55.79999923706055, 3.5114502906799316, -3.9389312267303467, 1.5267175436019897, 69305664.0
-5.3125, 5.21484375, -6.81640625, 69.5999984741211, 7.650000095367432, -105.44999694824219, 0.22900763154029846, 2.1603052616119385, -1.1374045610427856, 8.1201171875, -0.5078125, -5.7177734375, 144.4499969482422, -337.04998779296875, 82.6500015258789, -11.90839672088623, 1.2748091220855713, -1.534351110458374, -8.9794921875, -0.9521484375, 4.619140625, 25.799999237060547, 62.099998474121094, 109.05000305175781, 12.587786674499512, -7.007633686065674, -5.687022686004639, -10.048828125, -0.29296875, 2.2265625, 61.79999923706055, 57.45000076293945, 43.95000076293945, 9.045801162719727, -3.2671756744384766, 1.9083969593048096, -9.1455078125, -2.03125, 3.8818359375, 24.149999618530273, -22.649999618530273, 43.650001525878906, -1.0, -1.770992398262024, -2.458015203475952, -4.1357421875, 1.26953125, 9.267578125, -10.350000381469727, 2.0999999046325684, 55.650001525878906, 2.419847249984741, -1.3282443284988403, -0.9847328066825867, 69317384.0
-5.3564453125, 5.1171875, -6.787109375, 72.44999694824219, 9.149999618530273, -104.4000015258789, 0.6793892979621887, -0.4351145029067993, -0.6412214040756226, 8.1005859375, -0.673828125, -5.68359375, 144.75, -339.1499938964844, 81.75, -3.358778715133667, -5.183206081390381, 5.351145267486572, -9.0576171875, -0.9765625, 4.6630859375, 27.600000381469727, 63.75, 110.25, 5.770992279052734, -10.229007720947266, -0.38167938590049744, -9.892578125, -0.1806640625, 2.24609375, 63.150001525878906, 58.04999923706055, 42.599998474121094, 6.465648651123047, -4.122137546539307, 1.2977099418640137, -9.1015625, -1.81640625, 4.072265625, 24.899999618530273, -23.100000381469727, 44.70000076293945, 4.488549709320068, 1.122137427330017, -4.328244209289551, -4.0966796875, 1.181640625, 9.267578125, -10.350000381469727, 2.0999999046325684, 55.650001525878906, 2.0458016395568848, -4.5877861976623535, -3.2671756744384766, 69329104.0
-5.4833984375, 5.1171875, -6.71875, 72.44999694824219, 9.149999618530273, -104.4000015258789, 1.1832060813903809, -0.06870228797197342, 0.7022900581359863, 7.9541015625, -0.595703125, -5.615234375, 144.75, -342.1499938964844, 79.5, 3.893129825592041, -8.847328186035156, 2.4809160232543945, -8.974609375, -0.8642578125, 4.5703125, 25.799999237060547, 60.900001525878906, 109.05000305175781, 5.061068534851074, -8.534351348876953, 3.9083969593048096, -9.814453125, 0.0439453125, 2.34375, 61.79999923706055, 58.20000076293945, 43.95000076293945, 4.656488418579102, -5.14503812789917, 0.7862595319747925, -9.169921875, -1.7919921875, 4.1845703125, 26.25, -22.950000762939453, 44.849998474121094, 3.007633686065674, 6.267175674438477, 0.21374045312404633, -4.1455078125, 1.2939453125, 9.140625, -11.850000381469727, 1.649999976158142, 55.650001525878906, -3.0, -0.6259542107582092, -2.007633686065674, 69340816.0
-5.6298828125, 4.892578125, -6.8017578125, 71.25, 7.800000190734863, -104.55000305175781, 1.7480915784835815, -0.7251908183097839, 1.0152671337127686, 8.1494140625, -0.5712890625, -5.654296875, 145.0500030517578, -343.95001220703125, 81.30000305175781, 5.106870174407959, -7.610687255859375, -1.0916030406951904, -8.9013671875, -0.9375, 4.6337890625, 27.299999237060547, 62.099998474121094, 108.75, -5.1297712326049805, -6.473282337188721, -3.1603052616119385, -9.853515625, 0.21484375, 2.4658203125, 61.95000076293945, 58.04999923706055, 44.400001525878906, -0.4351145029067993, -4.1984734535217285, -1.0992366075515747, -9.0869140625, -1.8212890625, 4.150390625, 26.25, -22.950000762939453, 44.849998474121094, -0.9694656729698181, 7.14503812789917, 0.9465649127960205, -4.1845703125, 1.3818359375, 9.111328125, -11.100000381469727, 1.649999976158142, 55.650001525878906, -1.305343508720398, -3.9083969593048096, -5.72519063949585, 69352536.0
-5.625, 4.9755859375, -6.7724609375, 70.5, 9.0, -104.55000305175781, 1.587786316871643, -2.038167953491211, -0.5267175436019897, 8.0078125, -0.6591796875, -5.888671875, 144.89999389648438, -343.04998779296875, 81.44999694824219, 8.694656372070312, -8.145038604736328, -2.2748091220855713, -8.8330078125, -0.751953125, 4.8193359375, 27.299999237060547, 62.099998474121094, 108.75, -5.251908302307129, -5.778625965118408, -2.396946668624878, -9.833984375, -0.078125, 2.3974609375, 63.150001525878906, 57.599998474121094, 43.650001525878906, 3.0534350872039795, -0.9160305261611938, -1.0687023401260376, -9.052734375, -1.8359375, 4.16015625, 24.75, -22.950000762939453, 43.79999923706055, 1.3129770755767822, 3.0229008197784424, -1.5801526308059692, -4.033203125, 1.2939453125, 9.23828125, -10.350000381469727, 1.350000023841858, 53.70000076293945, 2.862595319747925, -3.85496187210083, -1.9770992994308472, 69364256.0
-5.7177734375, 5.0146484375, -6.6748046875, 70.5, 9.0, -104.55000305175781, 3.1297709941864014, -1.3282443284988403, -0.3893129825592041, 8.125, -0.5615234375, -5.87890625, 145.8000030517578, -342.1499938964844, 82.05000305175781, 16.282442092895508, -11.190839767456055, 2.14503812789917, -9.052734375, -0.7861328125, 4.7509765625, 25.950000762939453, 62.400001525878906, 108.1500015258789, -7.183206081390381, -6.244274616241455, 2.3664121627807617, -9.736328125, -0.1123046875, 2.34375, 62.400001525878906, 56.54999923706055, 44.099998474121094, -5.312977313995361, -2.5114502906799316, -3.2977099418640137, -9.1064453125, -1.748046875, 4.130859375, 24.600000381469727, -23.399999618530273, 45.0, -1.5419847965240479, 7.465648651123047, -0.25190839171409607, -4.1796875, 1.50390625, 9.12109375, -11.25, 1.9500000476837158, 54.75, -1.6412214040756226, -2.1297709941864014, 0.45038166642189026, 69375976.0
-5.6201171875, 4.9072265625, -6.7578125, 72.0, 7.800000190734863, -106.6500015258789, 2.4809160232543945, 0.19847328960895538, -3.8473281860351562, 8.203125, -0.263671875, -6.0205078125, 143.39999389648438, -339.75, 82.19999694824219, 14.053435325622559, -8.137404441833496, -0.7633587718009949, -8.9892578125, -0.693359375, 4.7705078125, 25.950000762939453, 61.95000076293945, 107.4000015258789, -5.160305500030518, -7.931297779083252, -1.122137427330017, -9.62890625, 0.1123046875, 2.421875, 62.400001525878906, 58.04999923706055, 44.099998474121094, 1.9083969593048096, -2.7022900581359863, -0.5267175436019897, -9.072265625, -1.8359375, 4.169921875, 26.399999618530273, -23.399999618530273, 43.95000076293945, -0.9618320465087891, 0.5114504098892212, -2.786259651184082, -4.1845703125, 1.328125, 9.1015625, -11.399999618530273, 2.0999999046325684, 55.650001525878906, -0.8167939186096191, -4.923664093017578, -1.2442748546600342, 69387696.0
-5.4833984375, 5.0390625, -6.5283203125, 70.94999694824219, 7.5, -104.8499984741211, 0.3893129825592041, 0.4198473393917084, -1.0839694738388062, 8.251953125, -0.3564453125, -5.771484375, 143.5500030517578, -338.70001220703125, 81.75, 11.893129348754883, 0.6641221642494202, -1.2137404680252075, -8.6962890625, -0.5029296875, 4.86328125, 27.899999618530273, 61.95000076293945, 109.3499984741211, -5.770992279052734, -6.809160232543945, -3.1526718139648438, -9.6826171875, 0.0634765625, 2.3876953125, 62.400001525878906, 58.04999923706055, 44.099998474121094, -2.1526718139648438, 0.40458014607429504, 0.3664122223854065, -8.92578125, -1.6357421875, 4.169921875, 25.5, -21.75, 44.54999923706055, 2.1679389476776123, 0.13740457594394684, 1.4732824563980103, -3.9599609375, 1.318359375, 8.994140625, -12.0, 1.0499999523162842, 55.04999923706055, 1.198473334312439, -2.4427480697631836, 2.0458016395568848, 69398440.0
-5.5517578125, 4.9755859375, -6.6162109375, 70.94999694824219, 7.5, -104.8499984741211, -0.5648854970932007, 3.358778715133667, -2.85496187210083, 8.125, -0.4052734375, -5.64453125, 144.3000030517578, -336.8999938964844, 82.3499984741211, 11.0, 1.2366411685943604, 0.6106870174407959, -8.6962890625, -0.5908203125, 4.912109375, 27.899999618530273, 61.95000076293945, 109.3499984741211, -8.503816604614258, -8.41984748840332, -2.7709922790527344, -9.66796875, 0.2783203125, 2.40234375, 62.400001525878906, 57.599998474121094, 43.650001525878906, -2.1526718139648438, -5.076335906982422, 2.0152671337127686, -9.12109375, -1.8115234375, 4.1748046875, 24.899999618530273, -21.899999618530273, 44.25, -1.9007633924484253, -2.603053331375122, 3.2061069011688232, -4.0380859375, 1.2451171875, 9.140625, -12.0, 1.9500000476837158, 53.54999923706055, 0.9694656729698181, -2.85496187210083, 0.8015267252922058, 69410160.0
-5.322265625, 5.166015625, -6.5771484375, 70.5, 7.800000190734863, -104.8499984741211, -2.0839693546295166, 0.1450381726026535, -4.870229244232178, 8.125, -0.4638671875, -5.478515625, 142.5, -337.20001220703125, 82.05000305175781, 11.251908302307129, -0.18320611119270325, 1.1755725145339966, -8.7255859375, -0.771484375, 4.814453125, 27.600000381469727, 61.79999923706055, 109.05000305175781, -6.282442569732666, -7.671755790710449, -3.931297779083252, -9.765625, 0.0927734375, 2.5634765625, 62.400001525878906, 57.599998474121094, 43.650001525878906, -5.175572395324707, -6.85496187210083, 2.0916030406951904, -9.0283203125, -1.7919921875, 4.140625, 24.899999618530273, -21.899999618530273, 44.25, -2.6641221046447754, -2.671755790710449, 2.9465649127960205, -4.04296875, 1.2939453125, 9.072265625, -10.800000190734863, 1.0499999523162842, 53.54999923706055, 1.587786316871643, 1.587786316871643, -0.6259542107582092, 69421872.0
-5.3369140625, 5.1025390625, -6.71875, 70.6500015258789, 6.900000095367432, -103.94999694824219, -3.038167953491211, 6.671755790710449, -5.984732627868652, 8.037109375, -0.44921875, -5.5517578125, 141.89999389648438, -335.25, 81.1500015258789, 10.885496139526367, -5.5877861976623535, -0.12977099418640137, -8.7939453125, -0.8935546875, 4.775390625, 25.950000762939453, 63.150001525878906, 110.4000015258789, -12.48854923248291, -1.4885495901107788, -5.427480697631836, -9.6923828125, -0.1171875, 2.5537109375, 62.400001525878906, 58.04999923706055, 42.599998474121094, -5.007633686065674, -5.297709941864014, -0.08396946638822556, -9.0087890625, -1.962890625, 4.0869140625, 23.850000381469727, -22.350000381469727, 43.650001525878906, -2.7328243255615234, -7.2366414070129395, 5.213740348815918, -4.072265625, 1.3134765625, 9.189453125, -10.800000190734863, 2.25, 54.75, 1.9694656133651733, -1.1832060813903809, -0.42748090624809265, 69433592.0
-5.3271484375, 5.13671875, -6.77734375, 73.19999694824219, 8.399999618530273, -105.44999694824219, -1.9083969593048096, 0.6717557311058044, -1.732824444770813, 7.978515625, -0.322265625, -5.556640625, 140.6999969482422, -336.8999938964844, 80.25, 11.51145076751709, -6.6259541511535645, 5.1297712326049805, -8.8623046875, -1.162109375, 4.86328125, 27.0, 61.95000076293945, 108.1500015258789, -10.946564674377441, -3.3053436279296875, -3.1984732151031494, -9.7802734375, -0.5615234375, 2.3779296875, 62.25, 59.849998474121094, 42.45000076293945, -10.022900581359863, -4.832061290740967, -0.5648854970932007, -9.0869140625, -2.0361328125, 4.00390625, 26.100000381469727, -23.850000381469727, 44.25, -5.938931465148926, -1.6641221046447754, 2.755725145339966, -3.9208984375, 1.337890625, 9.16015625, -11.850000381469727, 2.8499999046325684, 55.20000076293945, 2.1908397674560547, 1.4122138023376465, 1.4427480697631836, 69445312.0
-5.390625, 5.0830078125, -6.8115234375, 73.19999694824219, 8.399999618530273, -105.44999694824219, -1.267175555229187, 0.8778625726699829, -1.7404580116271973, 8.0517578125, -0.322265625, -5.6689453125, 142.1999969482422, -335.70001220703125, 79.19999694824219, 2.0839693546295166, -5.1984734535217285, 0.08396946638822556, -9.08203125, -1.2890625, 4.7314453125, 26.549999237060547, 61.79999923706055, 108.0, -6.244274616241455, -7.6259541511535645, -4.969465732574463, -9.9755859375, -0.5859375, 2.2705078125, 59.400001525878906, 58.5, 43.650001525878906, 2.6641221046447754, -2.2748091220855713, 0.9770992398262024, -8.9697265625, -2.197265625, 3.9404296875, 26.100000381469727, -23.850000381469727, 44.25, 4.3053436279296875, -2.4885497093200684, 2.076335906982422, -4.0185546875, 1.357421875, 9.12109375, -12.75, 0.75, 55.5, 3.0534350872039795, -2.7938930988311768, 2.610687017440796, 69457032.0
-5.302734375, 5.1220703125, -6.7431640625, 70.6500015258789, 7.349999904632568, -104.69999694824219, 2.816793918609619, -2.7328243255615234, 0.22900763154029846, 8.1103515625, -0.615234375, -5.6298828125, 142.1999969482422, -335.70001220703125, 79.19999694824219, -1.2595419883728027, -5.824427604675293, 1.3740458488464355, -8.9111328125, -1.3232421875, 4.7412109375, 26.850000381469727, 62.54999923706055, 108.75, 0.9312977194786072, -6.824427604675293, -0.007633587811142206, -9.8095703125, -0.556640625, 2.2314453125, 62.70000076293945, 58.5, 45.150001525878906, 1.0305343866348267, -4.0, -0.6259542107582092, -9.0771484375, -2.1240234375, 3.857421875, 24.899999618530273, -24.600000381469727, 44.25, -2.351145029067993, 4.450381755828857, -1.877862572669983, -3.96484375, 1.318359375, 9.2529296875, -12.449999809265137, 1.9500000476837158, 56.54999923706055, -0.17557251453399658, -2.9465649127960205, 2.496183156967163, 69468752.0
-5.458984375, 5.2001953125, -6.7041015625, 71.0999984741211, 6.900000095367432, -105.0, 0.9160305261611938, 0.6412214040756226, 1.0, 8.0810546875, -0.595703125, -5.625, 141.0, -336.1499938964844, 82.05000305175781, -1.1908396482467651, 0.9083969593048096, 2.6870229244232178, -8.96484375, -1.1083984375, 4.70703125, 25.799999237060547, 61.79999923706055, 108.0, 4.946564674377441, -12.480916023254395, 0.4656488597393036, -9.78515625, -0.3955078125, 2.4658203125, 63.150001525878906, 58.5, 43.349998474121094, 9.282443046569824, -5.58015251159668, -6.541984558105469, -9.16015625, -2.080078125, 3.9501953125, 24.899999618530273, -24.600000381469727, 44.25, 5.4809160232543945, 5.595419883728027, -4.4122138023376465, -4.091796875, 1.3330078125, 9.1162109375, -9.600000381469727, 0.44999998807907104, 53.400001525878906, 0.47328245639801025, -2.427480936050415, -1.7862595319747925, 69480464.0
-5.5078125, 5.0927734375, -6.7578125, 71.0999984741211, 6.900000095367432, -105.0, 0.5114504098892212, 1.7557251453399658, -2.1603052616119385, 8.134765625, -0.6494140625, -5.517578125, 141.89999389648438, -337.5, 80.4000015258789, -4.931297779083252, -1.9770992994308472, 1.0, -8.6328125, -1.03515625, 4.8095703125, 26.700000762939453, 62.70000076293945, 108.1500015258789, 8.045801162719727, -14.190839767456055, 4.755725383758545, -9.6435546875, -0.1416015625, 2.5341796875, 62.25, 57.0, 43.95000076293945, 2.427480936050415, -4.786259651184082, -1.1526718139648438, -9.04296875, -2.0654296875, 4.091796875, 25.5, -22.5, 43.349998474121094, 2.534351110458374, 4.5877861976623535, -1.7175573110580444, -4.04296875, 1.2841796875, 9.267578125, -11.100000381469727, 0.44999998807907104, 54.150001525878906, -0.6717557311058044, -6.2366414070129395, 0.18320611119270325, 69493168.0
-5.5859375, 5.126953125, -6.650390625, 72.0, 8.25, -106.94999694824219, 0.9160305261611938, 0.6412214040756226, -0.694656491279602, 7.9541015625, -0.7958984375, -5.4296875, 141.89999389648438, -337.5, 80.4000015258789, -1.2748091220855713, -12.053435325622559, -2.969465732574463, -8.623046875, -1.0546875, 4.853515625, 26.549999237060547, 61.79999923706055, 108.75, 1.9770992994308472, -8.893129348754883, -1.503816843032837, -9.765625, -0.0244140625, 2.63671875, 61.5, 57.0, 43.20000076293945, 7.045801639556885, -4.526717662811279, -0.18320611119270325, -9.0673828125, -2.0458984375, 4.2724609375, 25.350000381469727, -23.399999618530273, 43.95000076293945, 2.5190839767456055, 2.9541985988616943, -4.206106662750244, -3.9697265625, 1.2109375, 9.1943359375, -10.649999618530273, 1.350000023841858, 55.20000076293945, -1.801526665687561, -2.4809160232543945, -3.6641221046447754, 69504880.0
-5.4443359375, 5.029296875, -6.6015625, 70.5, 6.0, -103.80000305175781, -1.4580153226852417, 3.358778715133667, 2.9160306453704834, 7.96875, -0.7470703125, -5.6005859375, 141.3000030517578, -337.79998779296875, 79.05000305175781, 3.3435113430023193, -13.717556953430176, -1.9312976598739624, -8.564453125, -0.91796875, 4.8974609375, 26.549999237060547, 61.79999923706055, 108.75, 3.389312982559204, -7.083969593048096, -0.45038166642189026, -9.775390625, 0.0341796875, 2.6708984375, 61.04999923706055, 58.20000076293945, 43.95000076293945, 0.25954198837280273, -1.4351145029067993, -3.2671756744384766, -9.0625, -1.9384765625, 4.1943359375, 24.899999618530273, -23.850000381469727, 44.25, 0.48091602325439453, -0.5419847369194031, -4.732824325561523, -3.9794921875, 1.46484375, 9.1943359375, -10.5, 2.700000047683716, 55.5, 1.122137427330017, -1.3206106424331665, -0.7633587718009949, 69516600.0
-5.5419921875, 5.126953125, -6.77734375, 72.1500015258789, 7.949999809265137, -104.69999694824219, 1.587786316871643, 0.42748090624809265, 1.5496183633804321, 8.14453125, -0.4931640625, -5.732421875, 141.3000030517578, -337.79998779296875, 79.05000305175781, 5.740458011627197, -13.687023162841797, 0.19847328960895538, -8.7841796875, -0.9326171875, 4.90234375, 25.799999237060547, 63.0, 108.30000305175781, -3.679389238357544, -3.4809160232543945, -3.70992374420166, -9.7900390625, -0.126953125, 2.59765625, 61.04999923706055, 58.20000076293945, 43.95000076293945, -2.076335906982422, -0.18320611119270325, -7.229007720947266, -9.1162109375, -1.826171875, 4.2138671875, 25.350000381469727, -24.299999237060547, 43.650001525878906, 1.961832046508789, 1.7404580116271973, -1.5419847965240479, -4.0869140625, 1.34765625, 9.08203125, -9.899999618530273, 2.0999999046325684, 54.150001525878906, -0.5190839767456055, -0.13740457594394684, -0.10687022656202316, 69528320.0
-5.5859375, 4.8828125, -6.69921875, 71.55000305175781, 7.800000190734863, -104.8499984741211, 2.8396947383880615, 0.580152690410614, 1.587786316871643, 8.22265625, -0.3857421875, -6.015625, 141.4499969482422, -336.8999938964844, 80.25, 2.427480936050415, -13.679388999938965, -0.6564885377883911, -8.92578125, -0.986328125, 4.7607421875, 27.299999237060547, 61.79999923706055, 108.75, 2.4427480697631836, -5.85496187210083, -3.396946668624878, -9.6337890625, -0.33203125, 2.5439453125, 61.20000076293945, 58.04999923706055, 43.650001525878906, 2.0610687732696533, -3.0534350872039795, -3.4427480697631836, -9.0771484375, -1.9287109375, 4.1455078125, 24.0, -23.700000762939453, 44.54999923706055, 6.5877861976623535, 0.3358778655529022, -1.3740458488464355, -4.150390625, 1.46484375, 9.0185546875, -12.449999809265137, 1.9500000476837158, 55.04999923706055, 3.5648856163024902, -2.6946566104888916, -0.49618321657180786, 69540040.0
-5.5322265625, 4.8828125, -6.77734375, 71.0999984741211, 6.900000095367432, -102.9000015258789, 0.8091602921485901, 2.1908397674560547, -2.9007632732391357, 8.2080078125, -0.17578125, -6.044921875, 141.0, -334.95001220703125, 80.55000305175781, -2.6564886569976807, -7.282442569732666, 0.08396946638822556, -8.8818359375, -0.8349609375, 4.833984375, 28.950000762939453, 61.20000076293945, 107.8499984741211, 7.900763511657715, -6.030534267425537, -6.5877861976623535, -9.7412109375, -0.1953125, 2.4267578125, 61.04999923706055, 58.04999923706055, 43.650001525878906, 10.633587837219238, -6.4809160232543945, -1.305343508720398, -9.08203125, -1.8408203125, 4.08203125, 24.0, -23.700000762939453, 44.54999923706055, 2.969465732574463, 2.1908397674560547, -4.641221523284912, -4.1064453125, 1.4599609375, 8.9990234375, -10.350000381469727, 1.649999976158142, 55.650001525878906, -4.442748069763184, -3.603053331375122, -2.580152750015259, 69552736.0
-5.6005859375, 4.9462890625, -6.66015625, 71.0999984741211, 6.900000095367432, -102.9000015258789, 1.9770992994308472, 0.45038166642189026, -0.022900763899087906, 8.22265625, -0.3076171875, -5.8447265625, 141.0, -334.95001220703125, 80.55000305175781, -2.496183156967163, 1.0152671337127686, 0.18320611119270325, -8.6181640625, -0.6005859375, 4.873046875, 28.950000762939453, 61.20000076293945, 107.8499984741211, 7.5190839767456055, -9.12977123260498, -0.015267175622284412, -9.6630859375, 0.1806640625, 2.4951171875, 63.29999923706055, 57.45000076293945, 43.95000076293945, 6.221374034881592, -10.175572395324707, 1.2061069011688232, -9.0380859375, -1.787109375, 4.1015625, 25.350000381469727, -21.149999618530273, 44.25, 4.099236488342285, -0.8702290058135986, -3.5648856163024902, -4.0478515625, 1.513671875, 9.0087890625, -11.399999618530273, 2.0999999046325684, 55.650001525878906, 0.7938931584358215, -6.595419883728027, 2.038167953491211, 69564456.0
-5.625, 5.0390625, -6.6845703125, 72.30000305175781, 6.300000190734863, -104.55000305175781, 2.1908397674560547, -2.175572633743286, -3.2290077209472656, 7.978515625, -0.4736328125, -5.80078125, 142.9499969482422, -334.95001220703125, 79.5, -6.702290058135986, -1.8702290058135986, 1.2824428081512451, -8.5986328125, -0.6005859375, 4.7998046875, 28.049999237060547, 62.099998474121094, 108.0, 4.832061290740967, -13.122137069702148, -3.7404580116271973, -9.6435546875, 0.25390625, 2.5537109375, 62.70000076293945, 58.04999923706055, 44.099998474121094, 2.534351110458374, -4.534351348876953, -0.3893129825592041, -8.8818359375, -1.7138671875, 4.1845703125, 23.850000381469727, -23.399999618530273, 44.25, -2.816793918609619, -1.305343508720398, -1.3511450290679932, -4.0771484375, 1.455078125, 9.111328125, -11.399999618530273, 2.0999999046325684, 55.650001525878906, 0.221374049782753, -5.27480936050415, -0.19847328960895538, 69576168.0
-5.5810546875, 5.0341796875, -6.572265625, 70.19999694824219, 7.050000190734863, -104.8499984741211, 0.7709923982620239, 0.32824426889419556, 1.267175555229187, 8.017578125, -0.537109375, -5.498046875, 142.9499969482422, -334.95001220703125, 79.5, -2.2748091220855713, -3.5648856163024902, 0.6717557311058044, -8.6865234375, -0.5517578125, 4.7607421875, 26.549999237060547, 60.900001525878906, 109.05000305175781, 7.496183395385742, -6.221374034881592, -6.244274616241455, -9.5263671875, 0.283203125, 2.4951171875, 61.650001525878906, 56.849998474121094, 44.400001525878906, 6.473282337188721, -7.5877861976623535, 0.7557252049446106, -8.96484375, -1.6162109375, 4.2724609375, 23.850000381469727, -23.399999618530273, 44.25, 1.3206106424331665, 0.20610687136650085, -1.572519063949585, -3.955078125, 1.416015625, 8.9306640625, -11.25, 0.75, 54.75, 0.2748091518878937, -1.5114504098892212, 2.0610687732696533, 69587888.0
-5.6396484375, 5.1513671875, -6.416015625, 70.19999694824219, 7.050000190734863, -104.8499984741211, -0.022900763899087906, 1.6793893575668335, -2.3129770755767822, 7.9443359375, -0.56640625, -5.60546875, 142.1999969482422, -337.95001220703125, 76.6500015258789, -1.9694656133651733, -8.190839767456055, 2.755725145339966, -8.7548828125, -0.7568359375, 4.853515625, 25.799999237060547, 60.900001525878906, 110.25, 0.7633587718009949, -10.687023162841797, -8.793892860412598, -9.541015625, 0.1953125, 2.5048828125, 62.25, 57.900001525878906, 42.45000076293945, 1.0, 0.5114504098892212, 0.42748090624809265, -8.9306640625, -1.787109375, 4.21875, 25.200000762939453, -24.450000762939453, 44.54999923706055, 0.22900763154029846, -3.0534350872039795, 3.076335906982422, -4.072265625, 1.42578125, 9.1552734375, -11.399999618530273, 1.649999976158142, 55.650001525878906, 2.358778715133667, 0.6259542107582092, 5.442748069763184, 69599608.0
-5.4296875, 5.1318359375, -6.58203125, 72.44999694824219, 5.849999904632568, -105.44999694824219, 0.007633587811142206, 3.2671756744384766, -8.480916023254395, 8.0615234375, -0.654296875, -5.6689453125, 141.89999389648438, -338.25, 77.55000305175781, 3.8473281860351562, -6.984732627868652, 2.786259651184082, -8.798828125, -0.8837890625, 4.765625, 26.100000381469727, 62.099998474121094, 108.75, -4.618320465087891, -1.6488549709320068, -9.603053092956543, -9.697265625, -0.09765625, 2.509765625, 61.04999923706055, 57.0, 43.20000076293945, -3.419847249984741, -1.9465649127960205, -1.0916030406951904, -9.0625, -1.9091796875, 4.08203125, 25.200000762939453, -24.450000762939453, 44.54999923706055, -1.9541984796524048, -4.43511438369751, 3.748091697692871, -4.0185546875, 1.396484375, 9.2138671875, -11.399999618530273, 2.0999999046325684, 55.20000076293945, -0.7251908183097839, 1.106870174407959, 0.7938931584358215, 69611328.0
-5.498046875, 5.146484375, -6.5966796875, 71.25, 8.550000190734863, -104.55000305175781, -1.1297709941864014, -0.13740457594394684, -3.5190839767456055, 8.1005859375, -0.5859375, -5.751953125, 141.60000610351562, -339.75, 76.94999694824219, 7.3740458488464355, -4.328244209289551, 1.305343508720398, -8.9013671875, -0.9814453125, 4.6728515625, 26.700000762939453, 61.95000076293945, 107.4000015258789, -8.038167953491211, -0.9007633328437805, -4.4809160232543945, -9.814453125, -0.2587890625, 2.2705078125, 61.20000076293945, 58.5, 42.900001525878906, -3.671755790710449, -1.5801526308059692, -1.8854961395263672, -9.033203125, -1.9775390625, 4.0576171875, 23.850000381469727, -23.100000381469727, 44.70000076293945, -1.770992398262024, -3.1526718139648438, 4.167938709259033, -3.92578125, 1.455078125, 9.1552734375, -11.850000381469727, 3.299999952316284, 54.900001525878906, 3.961832046508789, -2.8473281860351562, 4.320610523223877, 69623048.0
-5.46875, 5.107421875, -6.728515625, 72.30000305175781, 7.800000190734863, -105.5999984741211, -3.5267176628112793, 6.190839767456055, -3.0152671337127686, 8.0712890625, -0.5859375, -5.6982421875, 141.3000030517578, -339.29998779296875, 79.3499984741211, 6.053435325622559, -2.885496139526367, -0.7099236845970154, -8.9306640625, -1.1865234375, 4.5849609375, 28.350000381469727, 60.150001525878906, 106.5, -6.061068534851074, -6.244274616241455, -0.4885496199131012, -9.794921875, -0.3857421875, 2.255859375, 62.25, 56.70000076293945, 43.5, -2.671755790710449, -4.1984734535217285, 1.770992398262024, -8.984375, -2.1630859375, 4.0185546875, 24.450000762939453, -21.450000762939453, 43.79999923706055, -5.267175674438477, 0.7862595319747925, 2.6335878372192383, -4.0234375, 1.2939453125, 9.1455078125, -10.649999618530273, 1.350000023841858, 55.95000076293945, 1.8473283052444458, -3.9007632732391357, 2.29007625579834, 69634768.0
-5.2880859375, 5.1708984375, -6.7626953125, 71.55000305175781, 7.800000190734863, -105.5999984741211, -1.14503812789917, 0.22900763154029846, -1.8473283052444458, 8.115234375, -0.712890625, -5.751953125, 140.10000610351562, -340.04998779296875, 77.55000305175781, 6.8015265464782715, -2.2671756744384766, -4.0, -8.779296875, -1.328125, 4.7509765625, 28.350000381469727, 60.150001525878906, 106.5, -6.366412162780762, -7.8015265464782715, -1.2977099418640137, -9.7705078125, -0.44921875, 2.2021484375, 61.20000076293945, 55.650001525878906, 43.349998474121094, -2.14503812789917, -1.572519063949585, -0.5572519302368164, -9.1357421875, -1.875, 3.9794921875, 24.899999618530273, -23.850000381469727, 44.70000076293945, 1.0839694738388062, 1.7786259651184082, 2.2061069011688232, -3.994140625, 1.4306640625, 9.2724609375, -10.649999618530273, 1.350000023841858, 55.95000076293945, 3.282442808151245, -2.3664121627807617, 4.641221523284912, 69646480.0
-5.3369140625, 5.185546875, -6.8798828125, 71.4000015258789, 7.349999904632568, -106.05000305175781, 0.17557251453399658, 2.0534350872039795, 0.4198473393917084, 8.1494140625, -0.56640625, -5.5859375, 141.0, -339.45001220703125, 76.6500015258789, 10.519083976745605, 0.7709923982620239, -0.22900763154029846, -8.73046875, -1.162109375, 4.8193359375, 27.299999237060547, 61.79999923706055, 108.30000305175781, -3.3358778953552246, -11.534351348876953, 1.2442748546600342, -9.833984375, -0.380859375, 2.2998046875, 61.20000076293945, 55.650001525878906, 43.349998474121094, -4.358778476715088, -2.85496187210083, 0.06870228797197342, -9.0576171875, -2.0361328125, 3.9599609375, 24.450000762939453, -24.0, 44.099998474121094, -7.816793918609619, 5.5190839767456055, 0.030534351244568825, -3.984375, 1.2744140625, 9.2138671875, -10.050000190734863, 3.0, 54.75, -0.39694657921791077, -4.557251930236816, -0.2977099120616913, 69658200.0
-5.2001953125, 5.009765625, -6.7626953125, 71.55000305175781, 7.800000190734863, -103.80000305175781, -0.5343511700630188, 1.9312976598739624, 0.7099236845970154, 8.0224609375, -0.546875, -5.712890625, 140.5500030517578, -337.79998779296875, 78.0, 11.045801162719727, -3.3435113430023193, -4.916030406951904, -8.7353515625, -1.1279296875, 4.7314453125, 25.799999237060547, 60.150001525878906, 108.30000305175781, -10.29007625579834, -3.3053436279296875, 2.14503812789917, -9.697265625, -0.2099609375, 2.421875, 61.5, 57.45000076293945, 43.95000076293945, -2.8778626918792725, 0.6564885377883911, -2.931297779083252, -9.0234375, -2.158203125, 4.1162109375, 25.350000381469727, -23.850000381469727, 43.95000076293945, -0.32824426889419556, 3.7709922790527344, 0.9465649127960205, -3.8818359375, 1.298828125, 9.1552734375, -10.800000190734863, 2.700000047683716, 54.75, 0.18320611119270325, -3.9160306453704834, -0.7709923982620239, 69669920.0
-5.390625, 5.166015625, -6.4208984375, 71.55000305175781, 6.75, -105.5999984741211, -0.45038166642189026, 1.229007601737976, 0.09923664480447769, 8.2275390625, -0.478515625, -5.48828125, 140.6999969482422, -337.95001220703125, 79.19999694824219, 11.893129348754883, -2.106870174407959, -2.610687017440796, -8.7255859375, -0.9228515625, 4.7216796875, 26.25, 60.29999923706055, 108.5999984741211, -9.480916023254395, -4.847328186035156, 4.053435325622559, -9.70703125, -0.244140625, 2.4755859375, 61.5, 57.45000076293945, 43.95000076293945, -0.08396946638822556, -1.7175573110580444, 2.183206081390381, -9.033203125, -2.0556640625, 4.169921875, 25.350000381469727, -23.850000381469727, 43.95000076293945, -2.679389238357544, 6.122137546539307, 0.015267175622284412, -3.9599609375, 1.26953125, 9.23828125, -11.850000381469727, 2.0999999046325684, 54.45000076293945, -2.3740458488464355, -2.6641221046447754, -0.8396946787834167, 69681640.0
-5.5224609375, 5.01953125, -6.6162109375, 69.75, 8.25, -105.1500015258789, -0.3664122223854065, 1.0534350872039795, 1.8091603517532349, 8.046875, -0.4443359375, -5.52734375, 139.8000030517578, -335.25, 79.80000305175781, 11.412213325500488, -1.14503812789917, 0.6412214040756226, -8.6572265625, -0.9326171875, 4.8388671875, 26.25, 60.29999923706055, 108.5999984741211, -8.0, -6.85496187210083, 3.068702220916748, -9.638671875, -0.1611328125, 2.55859375, 63.29999923706055, 57.45000076293945, 43.95000076293945, -1.9312976598739624, 0.8015267252922058, 0.42748090624809265, -9.0185546875, -1.943359375, 4.2333984375, 25.799999237060547, -22.200000762939453, 44.099998474121094, 5.7633585929870605, 2.816793918609619, -0.47328245639801025, -3.9892578125, 1.416015625, 8.9599609375, -10.350000381469727, 1.649999976158142, 54.900001525878906, 1.961832046508789, -1.3206106424331665, 0.4351145029067993, 69693360.0
-5.400390625, 5.09765625, -6.650390625, 71.0999984741211, 7.949999809265137, -105.0, -2.5114502906799316, 0.2671755850315094, 1.5190839767456055, 7.998046875, -0.4541015625, -5.4736328125, 139.8000030517578, -335.25, 81.1500015258789, 7.251908302307129, -4.839694499969482, -2.6259541511535645, -8.7353515625, -0.9912109375, 4.6923828125, 26.850000381469727, 61.79999923706055, 108.0, -6.671755790710449, -2.7328243255615234, 3.862595319747925, -9.5556640625, 0.029296875, 2.6611328125, 61.650001525878906, 56.849998474121094, 43.349998474121094, 1.0687023401260376, -0.6183205842971802, -3.175572633743286, -9.04296875, -1.806640625, 4.2578125, 24.899999618530273, -23.399999618530273, 43.95000076293945, -1.893129825592041, 0.37404578924179077, 3.0, -4.1015625, 1.40625, 9.1748046875, -12.149999618530273, 1.649999976158142, 53.400001525878906, -0.6030534505844116, -5.70992374420166, -1.8625954389572144, 69705080.0
-5.654296875, 5.029296875, -6.71875, 70.94999694824219, 6.300000190734863, -104.55000305175781, -0.9083969593048096, -1.8167939186096191, 2.6946566104888916, 8.3544921875, -0.3173828125, -5.7666015625, 139.5, -333.75, 81.9000015258789, 5.938931465148926, -6.832061290740967, 1.4503816366195679, -8.828125, -0.95703125, 4.8828125, 28.049999237060547, 61.79999923706055, 109.05000305175781, -1.877862572669983, -2.824427604675293, -3.786259651184082, -9.8193359375, -0.126953125, 2.5341796875, 63.0, 56.25, 44.70000076293945, -4.229007720947266, -2.8473281860351562, 1.7480915784835815, -9.1748046875, -1.943359375, 4.111328125, 24.899999618530273, -23.399999618530273, 43.95000076293945, -1.2977099418640137, 3.0152671337127686, 3.4503817558288574, -4.2041015625, 1.4013671875, 9.0478515625, -12.149999618530273, 1.649999976158142, 53.400001525878906, -0.4122137427330017, -0.9618320465087891, 1.610687017440796, 69717776.0
-5.60546875, 5.048828125, -6.7626953125, 71.69999694824219, 7.949999809265137, -104.69999694824219, 1.0305343866348267, -0.8396946787834167, 0.3206107020378113, 8.193359375, -0.17578125, -5.64453125, 139.8000030517578, -332.25, 82.94999694824219, -1.3358778953552246, -10.587786674499512, 2.7404580116271973, -8.818359375, -0.9765625, 5.0341796875, 26.549999237060547, 60.599998474121094, 108.75, 2.541984796524048, -4.6259541511535645, -2.29007625579834, -9.7021484375, -0.3125, 2.32421875, 62.400001525878906, 56.849998474121094, 44.400001525878906, 3.5496182441711426, -5.671755790710449, 0.06106870248913765, -9.0771484375, -1.9580078125, 4.111328125, 25.200000762939453, -24.450000762939453, 44.849998474121094, 2.5877861976623535, 0.7175572514533997, 1.9465649127960205, -4.1259765625, 1.3671875, 9.0234375, -11.550000190734863, 2.700000047683716, 55.04999923706055, 0.35877862572669983, -2.4732823371887207, 0.7480915784835815, 69729488.0
-5.5078125, 4.9755859375, -6.81640625, 70.6500015258789, 8.399999618530273, -103.94999694824219, 1.2366411685943604, -2.7709922790527344, 3.0916030406951904, 8.1103515625, -0.3955078125, -5.771484375, 140.85000610351562, -332.25, 84.30000305175781, -7.030534267425537, -2.992366313934326, 1.4503816366195679, -8.857421875, -1.0546875, 4.892578125, 25.5, 60.75, 109.6500015258789, 8.587786674499512, -8.480916023254395, -3.6335878372192383, -9.9755859375, -0.2880859375, 2.353515625, 63.45000076293945, 57.29999923706055, 43.650001525878906, 2.183206081390381, -1.5419847965240479, -2.0839693546295166, -8.974609375, -1.9287109375, 3.974609375, 25.350000381469727, -21.899999618530273, 43.20000076293945, -0.40458014607429504, -0.48091602325439453, -0.8244274854660034, -4.1455078125, 1.38671875, 9.2822265625, -10.649999618530273, 2.0999999046325684, 54.900001525878906, -1.8320610523223877, -1.9465649127960205, -1.3969465494155884, 69741208.0
-5.5224609375, 5.1904296875, -6.669921875, 70.6500015258789, 8.399999618530273, -103.94999694824219, 0.732824444770813, -2.0458016395568848, 3.3816792964935303, 8.1982421875, -0.52734375, -5.751953125, 140.85000610351562, -333.75, 84.0, -8.137404441833496, -3.29007625579834, 1.0916030406951904, -8.80859375, -1.1328125, 4.8681640625, 26.100000381469727, 61.349998474121094, 110.25, 9.610687255859375, -3.992366313934326, -0.9923664331436157, -9.90234375, -0.13671875, 2.5, 62.54999923706055, 57.0, 42.45000076293945, 9.648855209350586, -5.809160232543945, -3.389312982559204, -9.00390625, -2.0849609375, 4.0185546875, 24.899999618530273, -23.850000381469727, 43.20000076293945, 10.931297302246094, -2.7709922790527344, -1.2519084215164185, -3.994140625, 1.3525390625, 9.16015625, -11.25, 1.5, 54.75, 0.5572519302368164, 1.038167953491211, -5.954198360443115, 69752928.0
-5.5029296875, 4.9755859375, -6.7041015625, 71.0999984741211, 6.599999904632568, -105.44999694824219, 0.13740457594394684, -3.7022900581359863, 0.9923664331436157, 8.193359375, -0.712890625, -5.8056640625, 142.64999389648438, -335.54998779296875, 83.69999694824219, -7.465648651123047, -5.106870174407959, 2.7022900581359863, -8.9697265625, -0.9326171875, 4.9462890625, 26.100000381469727, 59.849998474121094, 109.80000305175781, 10.732824325561523, -9.656488418579102, 0.48091602325439453, -9.912109375, -0.17578125, 2.4951171875, 61.95000076293945, 56.849998474121094, 43.349998474121094, 6.053435325622559, -4.603053569793701, -2.0, -9.2626953125, -2.01171875, 4.228515625, 24.899999618530273, -23.100000381469727, 42.900001525878906, 4.969465732574463, 0.20610687136650085, -1.6259541511535645, -4.1748046875, 1.3720703125, 9.23828125, -11.399999618530273, 0.8999999761581421, 54.900001525878906, -4.389313220977783, -1.465648889541626, -0.16030535101890564, 69764648.0
-5.595703125, 5.0732421875, -6.826171875, 71.0999984741211, 7.650000095367432, -104.69999694824219, 1.0992366075515747, -2.358778715133667, 2.610687017440796, 8.1396484375, -0.5908203125, -5.7958984375, 141.89999389648438, -337.5, 81.9000015258789, -6.5190839767456055, -5.656488418579102, 2.2671756744384766, -8.9306640625, -0.927734375, 4.853515625, 26.25, 61.5, 108.9000015258789, 10.977099418640137, -10.229007720947266, -1.4885495901107788, -10.0341796875, 0.0439453125, 2.4658203125, 62.54999923706055, 57.45000076293945, 43.95000076293945, 14.320611000061035, -7.526717662811279, -1.9389313459396362, -9.2236328125, -1.767578125, 4.1357421875, 24.75, -22.5, 44.54999923706055, 9.541984558105469, 0.40458014607429504, -4.396946430206299, -4.08203125, 1.357421875, 9.2529296875, -11.100000381469727, 1.350000023841858, 54.900001525878906, 2.0610687732696533, -1.0916030406951904, -0.8702290058135986, 69776368.0
-5.6103515625, 5.09765625, -6.7578125, 71.0999984741211, 7.650000095367432, -104.69999694824219, -0.038167938590049744, 0.2442748099565506, 0.732824444770813, 8.0712890625, -0.7080078125, -5.6787109375, 144.14999389648438, -337.04998779296875, 84.30000305175781, -2.9770991802215576, -5.732824325561523, -0.49618321657180786, -8.7841796875, -0.947265625, 4.833984375, 26.25, 62.70000076293945, 109.6500015258789, 9.320611000061035, -7.85496187210083, -2.6259541511535645, -9.8828125, 0.0732421875, 2.4267578125, 62.54999923706055, 57.45000076293945, 43.95000076293945, 3.534351110458374, -5.610687255859375, -0.885496199131012, -8.9990234375, -1.767578125, 4.0625, 25.200000762939453, -22.5, 42.75, 0.40458014607429504, 2.0992367267608643, -2.8778626918792725, -4.052734375, 1.337890625, 9.2822265625, -11.100000381469727, 1.350000023841858, 54.900001525878906, -0.022900763899087906, -2.0992367267608643, -1.1755725145339966, 69788088.0
-5.5810546875, 4.921875, -6.6650390625, 72.30000305175781, 8.25, -104.55000305175781, 1.389312982559204, 0.2748091518878937, -1.2213740348815918, 8.1640625, -0.615234375, -5.9033203125, 143.25, -337.6499938964844, 82.80000305175781, -5.152671813964844, -8.19847297668457, -1.6412214040756226, -8.9599609375, -0.8154296875, 4.853515625, 26.100000381469727, 61.349998474121094, 108.75, 8.51145076751709, -5.465648651123047, -2.8778626918792725, -9.7509765625, -0.05859375, 2.431640625, 61.20000076293945, 58.5, 43.650001525878906, 5.595419883728027, -9.007633209228516, -1.7938930988311768, -9.1162109375, -1.7919921875, 4.1748046875, 24.75, -22.950000762939453, 42.75, -0.9541984796524048, -4.320610523223877, -1.0763359069824219, -4.287109375, 1.2451171875, 9.1162109375, -11.850000381469727, 1.350000023841858, 55.650001525878906, 0.6488549709320068, -4.358778476715088, 0.8549618124961853, 69806640.0
-5.595703125, 4.9267578125, -6.7041015625, 71.55000305175781, 6.300000190734863, -104.8499984741211, 3.7938930988311768, 0.9618320465087891, 0.28244274854660034, 8.2861328125, -0.390625, -6.0107421875, 143.25, -337.6499938964844, 82.80000305175781, -2.610687017440796, -9.16030502319336, 0.13740457594394684, -8.798828125, -0.7080078125, 4.8974609375, 25.950000762939453, 61.95000076293945, 109.6500015258789, 6.183206081390381, -7.900763511657715, -0.2977099120616913, -9.697265625, 0.0146484375, 2.3779296875, 61.650001525878906, 58.79999923706055, 42.599998474121094, 1.6259541511535645, -9.610687255859375, -3.0839695930480957, -9.091796875, -1.8359375, 3.9794921875, 24.75, -22.950000762939453, 42.75, 1.4809160232543945, -3.7633588314056396, -3.717557191848755, -4.111328125, 1.396484375, 9.0869140625, -13.350000381469727, 2.0999999046325684, 55.20000076293945, 0.9618320465087891, -1.694656491279602, 2.7404580116271973, 69818360.0
-5.5126953125, 5.1220703125, -6.6845703125, 72.9000015258789, 6.900000095367432, -105.44999694824219, 3.8473281860351562, -1.4580153226852417, -1.6183205842971802, 8.1689453125, -0.4052734375, -6.015625, 142.9499969482422, -337.95001220703125, 79.5, -1.7404580116271973, 1.0687023401260376, 2.038167953491211, -8.798828125, -0.576171875, 4.7265625, 25.049999237060547, 62.099998474121094, 108.30000305175781, 5.679389476776123, -8.595419883728027, -4.572519302368164, -9.6875, -0.13671875, 2.3095703125, 60.75, 58.20000076293945, 42.45000076293945, 4.908397197723389, -9.946564674377441, 3.8473281860351562, -9.12109375, -1.8798828125, 4.0234375, 24.75, -23.700000762939453, 43.79999923706055, -2.213740348815918, -0.11450381577014923, -2.137404680252075, -3.9404296875, 1.42578125, 9.0283203125, -9.300000190734863, 0.75, 55.5, -0.9160305261611938, 1.9923664331436157, 0.7099236845970154, 69830080.0
-5.3857421875, 5.078125, -6.62109375, 70.5, 7.5, -104.8499984741211, 1.8091603517532349, -1.1297709941864014, -4.259541988372803, 8.0322265625, -0.4345703125, -5.8056640625, 142.9499969482422, -337.95001220703125, 79.5, -1.5572519302368164, 1.038167953491211, -0.19083969295024872, -8.8525390625, -0.80078125, 4.609375, 25.799999237060547, 62.099998474121094, 109.05000305175781, 2.7404580116271973, -10.32824420928955, -2.9770991802215576, -9.6826171875, 0.0048828125, 2.373046875, 61.20000076293945, 56.54999923706055, 44.099998474121094, 5.213740348815918, -10.496183395385742, 4.404580116271973, -9.072265625, -1.884765625, 4.111328125, 24.75, -22.5, 44.54999923706055, 2.893129825592041, -4.312977313995361, -1.3816794157028198, -4.0234375, 1.279296875, 9.12109375, -10.800000190734863, 1.5, 55.79999923706055, 1.1145038604736328, -4.030534267425537, 1.9847328662872314, 69841792.0
-5.5615234375, 5.13671875, -6.6064453125, 72.1500015258789, 7.650000095367432, -104.4000015258789, 0.8320610523223877, 1.961832046508789, 0.6259542107582092, 8.06640625, -0.595703125, -5.673828125, 143.10000610351562, -338.54998779296875, 80.4000015258789, 2.6335878372192383, 2.0992367267608643, 2.1908397674560547, -8.759765625, -0.7177734375, 4.6728515625, 27.899999618530273, 61.20000076293945, 108.1500015258789, -0.7709923982620239, -11.351144790649414, -3.0229008197784424, -9.7216796875, -0.05859375, 2.4560546875, 62.70000076293945, 56.849998474121094, 42.900001525878906, 0.35114502906799316, -1.9312976598739624, 4.343511581420898, -8.974609375, -1.7138671875, 4.130859375, 25.350000381469727, -24.600000381469727, 43.650001525878906, 5.099236488342285, -2.320610761642456, -1.770992398262024, -4.091796875, 1.42578125, 9.150390625, -9.300000190734863, 0.75, 55.79999923706055, 2.435114622116089, -0.6335877776145935, 2.8778626918792725, 69853512.0
-5.419921875, 5.1708984375, -6.62109375, 70.94999694824219, 9.300000190734863, -105.1500015258789, 0.13740457594394684, -0.19083969295024872, -2.9541985988616943, 8.0029296875, -0.5078125, -5.4833984375, 142.1999969482422, -339.1499938964844, 77.0999984741211, 7.503816604614258, -4.160305500030518, 2.068702220916748, -8.7744140625, -0.8642578125, 4.560546875, 26.25, 60.75, 108.5999984741211, -7.328244209289551, -4.137404441833496, -3.1908397674560547, -9.658203125, 0.0146484375, 2.3681640625, 61.650001525878906, 57.599998474121094, 42.900001525878906, -1.3664121627807617, -5.6946563720703125, 1.877862572669983, -8.9794921875, -1.8701171875, 4.140625, 25.649999618530273, -23.100000381469727, 45.0, -3.9770991802215576, -1.305343508720398, 2.6183207035064697, -4.04296875, 1.3037109375, 9.052734375, -12.449999809265137, 1.5, 55.79999923706055, -0.9465649127960205, -2.0152671337127686, 2.961832046508789, 69866208.0
-5.4052734375, 5.0927734375, -6.611328125, 70.6500015258789, 7.650000095367432, -104.69999694824219, -0.5496183037757874, -1.2213740348815918, 1.5572519302368164, 8.0126953125, -0.439453125, -5.341796875, 142.1999969482422, -339.1499938964844, 77.0999984741211, 8.862595558166504, -7.893129825592041, 0.7251908183097839, -8.8330078125, -0.888671875, 4.599609375, 27.450000762939453, 61.20000076293945, 109.3499984741211, -6.816793918609619, -4.732824325561523, -4.740458011627197, -9.8193359375, -0.1171875, 2.353515625, 62.400001525878906, 58.04999923706055, 44.099998474121094, -3.282442808151245, -1.9312976598739624, -3.1984732151031494, -9.052734375, -2.0166015625, 3.9599609375, 25.649999618530273, -23.100000381469727, 45.0, 2.862595319747925, -1.8167939186096191, 2.8091602325439453, -4.1162109375, 1.2548828125, 9.1552734375, -11.850000381469727, 1.649999976158142, 56.400001525878906, 1.6564885377883911, -3.465648889541626, 2.786259651184082, 69877928.0
-5.4248046875, 5.0732421875, -6.7041015625, 72.5999984741211, 7.5, -104.8499984741211, -2.038167953491211, -1.4885495901107788, -1.9770992994308472, 8.0126953125, -0.4638671875, -5.4833984375, 140.85000610351562, -338.54998779296875, 78.0, 7.015267372131348, -9.480916023254395, -0.6030534505844116, -8.88671875, -1.0498046875, 4.55078125, 25.5, 62.400001525878906, 107.0999984741211, -8.557251930236816, -3.580152750015259, -1.0610686540603638, -9.8291015625, -0.2099609375, 2.197265625, 62.70000076293945, 58.5, 43.650001525878906, -5.755725383758545, -4.984732627868652, 0.885496199131012, -8.994140625, -1.9140625, 3.92578125, 24.600000381469727, -22.649999618530273, 43.20000076293945, -10.09160327911377, -1.3969465494155884, 3.580152750015259, -3.9208984375, 1.2890625, 9.2626953125, -11.550000190734863, 1.9500000476837158, 55.79999923706055, 0.8931297659873962, -4.061068534851074, 7.824427604675293, 69889648.0
-5.4833984375, 5.166015625, -6.6796875, 72.5999984741211, 7.5, -104.8499984741211, 0.9770992398262024, 0.42748090624809265, 2.183206081390381, 8.1689453125, -0.3857421875, -5.673828125, 140.85000610351562, -338.54998779296875, 78.0, 8.587786674499512, -7.396946430206299, 0.11450381577014923, -8.9990234375, -1.162109375, 4.74609375, 25.5, 62.400001525878906, 107.0999984741211, -8.633587837219238, -7.29007625579834, -1.4198473691940308, -9.7705078125, -0.5078125, 2.1240234375, 61.650001525878906, 57.29999923706055, 44.099998474121094, -7.3053436279296875, -2.969465732574463, -2.8702290058135986, -8.935546875, -2.1337890625, 3.9404296875, 25.200000762939453, -22.5, 43.79999923706055, -4.343511581420898, 2.1603052616119385, 1.4732824563980103, -4.033203125, 1.34765625, 9.1552734375, -12.0, 0.75, 55.5, 1.229007601737976, -0.3129771053791046, 2.496183156967163, 69901368.0
-5.3515625, 5.1708984375, -6.6357421875, 70.6500015258789, 7.949999809265137, -106.3499984741211, -0.2671755850315094, 3.931297779083252, -1.0916030406951904, 8.1494140625, -0.5908203125, -5.7421875, 141.4499969482422, -338.70001220703125, 78.44999694824219, 8.496183395385742, -8.16030502319336, 1.6793893575668335, -8.779296875, -1.162109375, 4.794921875, 26.549999237060547, 62.099998474121094, 109.05000305175781, -4.488549709320068, -13.137404441833496, 2.328244209289551, -9.7021484375, -0.3564453125, 2.314453125, 61.5, 57.900001525878906, 44.25, 0.21374045312404633, -3.2366411685943604, -1.1755725145339966, -8.8720703125, -2.0654296875, 3.9599609375, 24.149999618530273, -23.399999618530273, 43.20000076293945, -4.656488418579102, 5.595419883728027, 2.5877861976623535, -3.935546875, 1.23046875, 9.091796875, -11.100000381469727, 1.649999976158142, 54.900001525878906, -1.9007633924484253, -2.641221284866333, 1.9770992994308472, 69913088.0
-5.3759765625, 5.09765625, -6.6552734375, 72.1500015258789, 7.349999904632568, -105.44999694824219, -0.6488549709320068, 4.824427604675293, -2.6946566104888916, 8.0224609375, -0.5029296875, -5.732421875, 141.89999389648438, -338.54998779296875, 78.30000305175781, 6.748091697692871, -2.1603052616119385, -2.8015267848968506, -8.7646484375, -0.9521484375, 4.716796875, 27.450000762939453, 61.95000076293945, 108.9000015258789, -6.496183395385742, -10.114503860473633, 3.0839695930480957, -9.736328125, -0.1220703125, 2.4609375, 62.70000076293945, 57.29999923706055, 43.650001525878906, 0.11450381577014923, 2.603053331375122, 0.32824426889419556, -9.0185546875, -1.97265625, 4.130859375, 24.149999618530273, -23.100000381469727, 44.25, 3.9083969593048096, 6.267175674438477, 0.35877862572669983, -3.916015625, 1.337890625, 9.2578125, -11.100000381469727, 1.350000023841858, 54.45000076293945, -1.770992398262024, 0.9083969593048096, -0.4656488597393036, 69924800.0
-5.3466796875, 5.21484375, -6.5625, 71.4000015258789, 7.949999809265137, -104.69999694824219, -1.4198473691940308, 2.9083969593048096, 0.07633587718009949, 8.1640625, -0.7568359375, -5.6640625, 140.5500030517578, -338.25, 80.0999984741211, 10.358778953552246, -3.9007632732391357, -2.076335906982422, -8.6962890625, -0.830078125, 4.853515625, 26.549999237060547, 61.79999923706055, 109.05000305175781, -9.732824325561523, -7.343511581420898, 2.4122138023376465, -9.6728515625, -0.068359375, 2.5830078125, 62.70000076293945, 57.29999923706055, 43.650001525878906, 2.396946668624878, -3.328244209289551, -2.068702220916748, -9.1796875, -1.97265625, 4.150390625, 25.350000381469727, -22.350000381469727, 43.95000076293945, -0.5419847369194031, 6.259541988372803, 4.137404441833496, -3.9111328125, 1.337890625, 9.2333984375, -12.600000381469727, 0.44999998807907104, 53.70000076293945, -0.5572519302368164, -1.587786316871643, -0.572519063949585, 69936520.0
-5.439453125, 5.0830078125, -6.6064453125, 71.69999694824219, 7.349999904632568, -104.69999694824219, 0.04580152779817581, -1.2748091220855713, 1.7175573110580444, 8.1884765625, -0.80078125, -5.4736328125, 140.85000610351562, -338.54998779296875, 79.05000305175781, 14.259542465209961, -6.923664093017578, -4.0, -8.6669921875, -0.8544921875, 4.853515625, 26.549999237060547, 61.79999923706055, 109.05000305175781, -8.603053092956543, -4.229007720947266, 1.587786316871643, -9.78515625, 0.0732421875, 2.5390625, 60.150001525878906, 57.29999923706055, 42.599998474121094, -5.5190839767456055, 0.7251908183097839, -0.6259542107582092, -9.0087890625, -1.9775390625, 4.2919921875, 25.350000381469727, -22.350000381469727, 43.95000076293945, -1.7404580116271973, 4.343511581420898, -1.6183205842971802, -3.9453125, 1.328125, 9.1796875, -12.600000381469727, 0.44999998807907104, 53.70000076293945, 0.7480915784835815, -1.770992398262024, -0.08396946638822556, 69948240.0
-5.2587890625, 5.1416015625, -6.689453125, 71.0999984741211, 6.150000095367432, -103.94999694824219, -0.5190839767456055, 1.9007633924484253, 0.8396946787834167, 8.0810546875, -0.6201171875, -5.56640625, 140.85000610351562, -337.5, 79.3499984741211, 15.251908302307129, -13.167939186096191, -1.7862595319747925, -8.5888671875, -0.9521484375, 4.8095703125, 26.549999237060547, 61.79999923706055, 108.75, -14.80152702331543, -1.6335878372192383, -2.7938930988311768, -9.658203125, -0.0341796875, 2.6171875, 62.400001525878906, 57.599998474121094, 42.900001525878906, -4.465648651123047, -0.290076345205307, 1.1297709941864014, -8.9892578125, -1.8505859375, 4.189453125, 24.149999618530273, -21.600000381469727, 45.0, -2.5954198837280273, -0.8396946787834167, 5.122137546539307, -3.9501953125, 1.337890625, 9.16015625, -12.600000381469727, 1.350000023841858, 53.400001525878906, 3.9007632732391357, -0.7786259651184082, 4.3053436279296875, 69959960.0
-5.498046875, 5.107421875, -6.69921875, 70.6500015258789, 8.699999809265137, -104.69999694824219, 2.1603052616119385, 1.6030534505844116, -3.1603052616119385, 8.212890625, -0.537109375, -5.7373046875, 141.4499969482422, -335.3999938964844, 81.30000305175781, 15.412213325500488, -12.083969116210938, -4.160305500030518, -8.8330078125, -1.0791015625, 4.8583984375, 25.950000762939453, 62.70000076293945, 109.6500015258789, -12.58015251159668, -1.7786259651184082, -0.7557252049446106, -9.7216796875, -0.400390625, 2.6416015625, 61.95000076293945, 56.54999923706055, 42.599998474121094, -8.717556953430176, -1.839694619178772, -2.8091602325439453, -9.2138671875, -2.0263671875, 4.1552734375, 25.799999237060547, -22.5, 43.79999923706055, -8.793892860412598, 2.0229008197784424, 2.778625965118408, -4.0087890625, 1.259765625, 9.248046875, -10.5, 0.75, 52.79999923706055, -0.4122137427330017, 0.19083969295024872, 3.8091602325439453, 69972656.0
-5.4443359375, 5.078125, -6.767578125, 71.4000015258789, 7.349999904632568, -103.94999694824219, 2.0458016395568848, -1.5114504098892212, 0.9770992398262024, 8.0322265625, -0.3955078125, -5.76171875, 139.5, -333.29998779296875, 83.69999694824219, 8.106870651245117, -3.038167953491211, -2.427480936050415, -8.857421875, -1.0400390625, 4.9267578125, 25.950000762939453, 62.70000076293945, 109.6500015258789, -6.4122138023376465, -2.282442808151245, -0.3206107020378113, -9.9072265625, -0.5126953125, 2.32421875, 61.650001525878906, 57.29999923706055, 43.349998474121094, 2.8473281860351562, -0.06106870248913765, -0.13740457594394684, -8.9599609375, -2.021484375, 4.1748046875, 26.399999618530273, -23.399999618530273, 43.650001525878906, 0.8702290058135986, 2.671755790710449, 1.9847328662872314, -3.974609375, 1.298828125, 9.16015625, -11.399999618530273, 1.649999976158142, 54.900001525878906, -1.106870174407959, -0.10687022656202316, -2.6259541511535645, 69985352.0
-5.3662109375, 5.05859375, -6.7724609375, 72.1500015258789, 7.949999809265137, -103.94999694824219, 2.14503812789917, -4.923664093017578, 4.961832046508789, 8.0810546875, -0.4248046875, -5.78125, 140.10000610351562, -331.79998779296875, 83.25, 1.6641221046447754, -3.9541985988616943, -2.2061069011688232, -8.7353515625, -1.1376953125, 5.029296875, 27.600000381469727, 60.599998474121094, 110.55000305175781, 1.5648854970932007, -8.931297302246094, 1.6793893575668335, -9.775390625, -0.4931640625, 2.3779296875, 61.79999923706055, 57.45000076293945, 43.95000076293945, 1.5572519302368164, -3.007633686065674, 3.862595319747925, -8.955078125, -1.9775390625, 3.955078125, 25.799999237060547, -23.700000762939453, 44.099998474121094, 4.977099418640137, 2.748091697692871, -1.839694619178772, -3.9501953125, 1.2890625, 9.1552734375, -10.649999618530273, 2.0999999046325684, 54.45000076293945, -0.32824426889419556, -3.824427604675293, -0.8244274854660034, 69997072.0
-5.537109375, 5.146484375, -6.572265625, 72.1500015258789, 7.949999809265137, -103.94999694824219, 1.9770992994308472, -4.007633686065674, 4.152671813964844, 8.10546875, -0.33203125, -5.712890625, 138.89999389648438, -330.8999938964844, 83.4000015258789, -3.755725145339966, -1.3358778953552246, -1.9923664331436157, -8.8818359375, -1.103515625, 4.9658203125, 24.600000381469727, 62.099998474121094, 109.5, 10.183206558227539, -7.56488561630249, 2.648854970932007, -9.8583984375, -0.1904296875, 2.48046875, 61.04999923706055, 57.45000076293945, 44.25, 8.190839767456055, -9.045801162719727, 5.183206081390381, -9.091796875, -1.93359375, 4.04296875, 24.600000381469727, -23.100000381469727, 44.25, 1.572519063949585, 1.7022900581359863, 3.6259541511535645, -3.9990234375, 1.34765625, 9.091796875, -12.600000381469727, 1.350000023841858, 55.650001525878906, -2.862595319747925, -6.893129825592041, -1.7022900581359863, 70008792.0
-5.4931640625, 5.1953125, -6.6064453125, 71.69999694824219, 6.599999904632568, -105.44999694824219, 3.0534350872039795, -4.786259651184082, 3.572519063949585, 8.0029296875, -0.5322265625, -5.52734375, 139.5, -329.25, 84.0, -11.389312744140625, 0.17557251453399658, -0.8320610523223877, -8.759765625, -0.869140625, 4.8828125, 26.850000381469727, 61.349998474121094, 110.25, 14.213740348815918, -8.320611000061035, -0.6717557311058044, -9.8095703125, -0.1318359375, 2.5830078125, 61.650001525878906, 57.29999923706055, 43.650001525878906, 3.6564886569976807, -5.618320465087891, -0.038167938590049744, -8.9111328125, -1.8603515625, 4.1357421875, 26.25, -22.950000762939453, 43.04999923706055, 3.8091602325439453, 2.503816843032837, -0.07633587718009949, -4.111328125, 1.455078125, 9.0869140625, -12.600000381469727, 1.350000023841858, 55.650001525878906, 0.32824426889419556, 1.0229008197784424, 0.40458014607429504, 70020504.0
-5.46875, 5.0537109375, -6.5673828125, 71.25, 6.75, -103.80000305175781, -2.2290077209472656, -0.11450381577014923, 2.282442808151245, 8.1103515625, -0.5322265625, -5.4150390625, 140.10000610351562, -331.04998779296875, 83.25, -11.961832046508789, -2.8473281860351562, -2.213740348815918, -8.7109375, -0.849609375, 4.8046875, 26.850000381469727, 61.349998474121094, 110.25, 11.67175579071045, -3.038167953491211, 0.08396946638822556, -9.755859375, -0.068359375, 2.5341796875, 61.650001525878906, 57.29999923706055, 43.650001525878906, 10.572519302368164, -8.145038604736328, -2.5572519302368164, -9.1162109375, -1.826171875, 4.150390625, 24.75, -22.950000762939453, 44.54999923706055, 0.9236641526222229, -0.38167938590049744, -1.893129825592041, -4.072265625, 1.396484375, 9.0966796875, -12.0, 2.700000047683716, 55.04999923706055, 0.8167939186096191, -5.6946563720703125, 3.6641221046447754, 70033200.0
-5.6005859375, 5.09765625, -6.7822265625, 70.94999694824219, 7.050000190734863, -103.80000305175781, -0.580152690410614, -0.885496199131012, 1.1526718139648438, 8.18359375, -0.6396484375, -5.5517578125, 140.39999389648438, -333.8999938964844, 82.3499984741211, -11.152671813964844, -12.351144790649414, -1.4732824563980103, -8.88671875, -0.9765625, 4.86328125, 26.850000381469727, 61.79999923706055, 109.5, 9.320611000061035, -3.778625965118408, -6.610687255859375, -9.9267578125, 0.0146484375, 2.5439453125, 61.650001525878906, 57.29999923706055, 43.650001525878906, 4.748091697692871, -5.259541988372803, -0.7404580116271973, -9.150390625, -1.8212890625, 4.1357421875, 24.75, -22.950000762939453, 43.79999923706055, 4.335877895355225, -5.70992374420166, -2.496183156967163, -4.3798828125, 1.3671875, 9.1748046875, -11.100000381469727, 1.350000023841858, 53.70000076293945, 1.4198473691940308, -2.5496182441711426, 1.6793893575668335, 70045896.0
-5.5859375, 5.048828125, -6.806640625, 71.55000305175781, 6.75, -104.8499984741211, 0.015267175622284412, 0.17557251453399658, 1.0, 8.0908203125, -0.5126953125, -5.771484375, 140.6999969482422, -334.6499938964844, 82.80000305175781, -9.374045372009277, -12.083969116210938, -1.6641221046447754, -8.9697265625, -1.0400390625, 4.82421875, 28.049999237060547, 60.900001525878906, 109.05000305175781, 8.595419883728027, -0.5114504098892212, -5.824427604675293, -9.921875, -0.1025390625, 2.34375, 61.95000076293945, 57.599998474121094, 44.099998474121094, 6.496183395385742, -5.603053569793701, -3.6259541511535645, -9.2138671875, -1.796875, 3.9892578125, 25.5, -23.700000762939453, 43.04999923706055, 6.389313220977783, -7.931297779083252, -5.702290058135986, -4.16015625, 1.3916015625, 9.0966796875, -10.350000381469727, 2.0999999046325684, 55.650001525878906, 0.8015267252922058, -3.2366411685943604, 3.106870174407959, 70057616.0
-5.517578125, 5.0390625, -6.9140625, 71.0999984741211, 7.650000095367432, -105.0, 1.7099236249923706, -0.8244274854660034, 3.2366411685943604, 8.291015625, -0.634765625, -5.9130859375, 140.6999969482422, -335.70001220703125, 82.3499984741211, -7.251908302307129, -11.351144790649414, 1.3816794157028198, -9.0380859375, -1.0400390625, 4.765625, 27.450000762939453, 60.75, 108.5999984741211, 15.152671813964844, -8.755724906921387, -4.343511581420898, -9.931640625, -0.2587890625, 2.1875, 61.95000076293945, 57.599998474121094, 44.099998474121094, 3.9847328662872314, -8.717556953430176, -6.251908302307129, -9.169921875, -1.9189453125, 3.9404296875, 26.100000381469727, -23.100000381469727, 43.95000076293945, -1.106870174407959, -6.114503860473633, -5.572519302368164, -4.1650390625, 1.3427734375, 9.208984375, -10.350000381469727, 2.0999999046325684, 55.650001525878906, -0.18320611119270325, -5.427480697631836, 0.06106870248913765, 70069336.0
-5.5517578125, 5.0537109375, -6.8212890625, 70.19999694824219, 7.5, -105.1500015258789, 0.6717557311058044, -0.8320610523223877, 2.534351110458374, 8.3251953125, -0.4443359375, -6.2109375, 142.35000610351562, -336.0, 81.9000015258789, -11.366412162780762, -5.007633686065674, -1.3129770755767822, -8.974609375, -0.908203125, 4.74609375, 27.450000762939453, 60.75, 108.5999984741211, 12.954198837280273, -10.389312744140625, -3.7251908779144287, -9.86328125, -0.2783203125, 2.109375, 63.900001525878906, 57.599998474121094, 42.150001525878906, 12.114503860473633, -8.19847297668457, -5.633587837219238, -9.169921875, -1.8359375, 3.974609375, 26.100000381469727, -23.100000381469727, 43.95000076293945, 7.5190839767456055, 0.5343511700630188, -5.343511581420898, -4.111328125, 1.40625, 9.2236328125, -12.149999618530273, 2.4000000953674316, 55.650001525878906, -0.9694656729698181, -3.0152671337127686, 0.9465649127960205, 70081056.0
-5.517578125, 5.1123046875, -6.6015625, 70.19999694824219, 7.5, -105.1500015258789, 1.7633588314056396, -1.0763359069824219, -1.2977099418640137, 8.2421875, -0.4296875, -5.966796875, 143.10000610351562, -336.0, 82.6500015258789, -9.80152702331543, -1.0916030406951904, -0.5419847369194031, -8.9013671875, -0.7373046875, 4.6044921875, 27.299999237060547, 62.54999923706055, 108.75, 15.541984558105469, -14.320611000061035, 0.06870228797197342, -9.580078125, -0.009765625, 2.353515625, 61.95000076293945, 56.849998474121094, 43.349998474121094, 9.312976837158203, -11.656488418579102, -2.717557191848755, -8.9501953125, -1.9091796875, 4.1064453125, 25.5, -22.200000762939453, 43.79999923706055, 5.175572395324707, 1.572519063949585, -3.671755790710449, -4.1015625, 1.3818359375, 9.1552734375, -12.149999618530273, 2.4000000953674316, 55.650001525878906, -3.7251908779144287, -4.213740348815918, 2.70992374420166, 70093752.0
-5.4541015625, 4.9365234375, -6.7138671875, 70.5, 6.0, -105.9000015258789, 3.885496139526367, -4.030534267425537, -1.0305343866348267, 8.2373046875, -0.5615234375, -5.8056640625, 141.0, -336.45001220703125, 78.44999694824219, -2.778625965118408, 0.9923664331436157, 3.610687017440796, -8.759765625, -0.5517578125, 4.736328125, 26.25, 63.45000076293945, 109.3499984741211, 7.343511581420898, -12.404580116271973, 0.6564885377883911, -9.5947265625, 0.1123046875, 2.5341796875, 61.04999923706055, 57.0, 44.25, 6.038167953491211, -8.664122581481934, -0.20610687136650085, -9.1015625, -1.9970703125, 4.208984375, 24.149999618530273, -23.399999618530273, 44.70000076293945, -1.7633588314056396, 1.0305343866348267, -0.5343511700630188, -4.0380859375, 1.4697265625, 9.208984375, -10.050000190734863, 1.0499999523162842, 54.29999923706055, -1.6488549709320068, -4.41984748840332, 0.05343511328101158, 70106448.0
-5.5810546875, 5.078125, -6.572265625, 71.0999984741211, 7.949999809265137, -104.69999694824219, 1.8167939186096191, -2.8778626918792725, 3.4885497093200684, 8.125, -0.4638671875, -5.4931640625, 142.35000610351562, -338.54998779296875, 79.05000305175781, 5.72519063949585, -3.5572519302368164, 2.5190839767456055, -8.6083984375, -0.6982421875, 4.6826171875, 26.25, 61.95000076293945, 107.8499984741211, -2.717557191848755, -7.458015441894531, -1.267175555229187, -9.51171875, 0.37109375, 2.55859375, 62.54999923706055, 58.650001525878906, 43.5, 4.190839767456055, -6.282442569732666, 0.5190839767456055, -9.189453125, -1.6455078125, 4.384765625, 26.549999237060547, -22.950000762939453, 43.04999923706055, 4.870229244232178, -1.6488549709320068, -5.1297712326049805, -4.0234375, 1.396484375, 9.189453125, -11.550000190734863, 1.0499999523162842, 55.5, 1.3969465494155884, -1.8167939186096191, 5.1297712326049805, 70118160.0
-5.595703125, 5.107421875, -6.591796875, 71.0999984741211, 7.949999809265137, -104.69999694824219, -1.8167939186096191, 1.801526665687561, 2.1603052616119385, 8.10546875, -0.3662109375, -5.5322265625, 142.1999969482422, -339.1499938964844, 77.69999694824219, 11.458015441894531, -6.175572395324707, 0.35877862572669983, -8.916015625, -0.615234375, 4.697265625, 26.25, 61.95000076293945, 107.8499984741211, -5.175572395324707, -5.267175674438477, -2.5648856163024902, -9.9072265625, 0.2685546875, 2.44140625, 62.25, 57.900001525878906, 43.5, -0.022900763899087906, 0.21374045312404633, -0.04580152779817581, -9.08203125, -1.8359375, 4.2626953125, 24.450000762939453, -22.200000762939453, 44.54999923706055, -2.9389312267303467, -1.465648889541626, 2.9541985988616943, -4.00390625, 1.50390625, 9.0478515625, -11.399999618530273, 2.8499999046325684, 53.70000076293945, 2.3129770755767822, -5.862595558166504, 4.061068534851074, 70129880.0
-5.6884765625, 5.15625, -6.6650390625, 72.30000305175781, 7.5, -103.5, 0.8396946787834167, -0.5648854970932007, 0.5038167834281921, 8.037109375, -0.3662109375, -5.56640625, 140.85000610351562, -338.54998779296875, 76.5, 12.717556953430176, -9.603053092956543, 1.6030534505844116, -8.9013671875, -0.7373046875, 4.6044921875, 25.799999237060547, 62.099998474121094, 108.30000305175781, -12.366412162780762, -5.641221523284912, -6.106870174407959, -9.677734375, 0.1123046875, 2.3046875, 63.0, 57.900001525878906, 44.25, -5.549618244171143, -3.6946566104888916, 0.7633587718009949, -9.033203125, -1.8359375, 4.1796875, 24.899999618530273, -22.649999618530273, 43.650001525878906, -4.5190839767456055, -2.816793918609619, 2.2366411685943604, -3.92578125, 1.3818359375, 9.0673828125, -10.800000190734863, 0.30000001192092896, 55.79999923706055, 2.862595319747925, -4.229007720947266, 4.633587837219238, 70141600.0
-5.5419921875, 5.0390625, -6.6796875, 71.55000305175781, 7.800000190734863, -104.55000305175781, -0.8549618124961853, 2.3664121627807617, -1.2137404680252075, 8.1787109375, -0.3515625, -5.7568359375, 140.85000610351562, -338.54998779296875, 76.5, 6.954198360443115, -8.702290534973145, -2.251908302307129, -8.7451171875, -0.9326171875, 4.70703125, 26.700000762939453, 60.29999923706055, 108.1500015258789, -12.259542465209961, -6.0, -4.1984734535217285, -9.6484375, -0.234375, 2.197265625, 61.95000076293945, 57.599998474121094, 42.900001525878906, -13.458015441894531, 0.2442748099565506, 1.0610686540603638, -8.9697265625, -1.8603515625, 3.9794921875, 24.899999618530273, -23.850000381469727, 42.900001525878906, -3.2366411685943604, 0.5267175436019897, 3.969465732574463, -3.9697265625, 1.4208984375, 9.1748046875, -11.25, 3.0, 55.04999923706055, 0.4656488597393036, -1.7862595319747925, 5.732824325561523, 70154296.0
-5.341796875, 5.126953125, -6.640625, 72.30000305175781, 7.5, -102.75, 1.0992366075515747, -0.40458014607429504, -2.3816792964935303, 8.0078125, -0.439453125, -5.751953125, 141.75, -337.20001220703125, 77.0999984741211, 9.244275093078613, -1.198473334312439, 0.8320610523223877, -8.7451171875, -1.1279296875, 4.6923828125, 27.299999237060547, 62.099998474121094, 106.94999694824219, -9.893129348754883, -3.9007632732391357, -2.038167953491211, -9.7265625, -0.4296875, 2.3193359375, 61.20000076293945, 57.599998474121094, 43.650001525878906, -3.893129825592041, -2.2671756744384766, -1.3129770755767822, -8.9697265625, -2.177734375, 4.1064453125, 24.0, -22.200000762939453, 42.29999923706055, -7.3740458488464355, 2.580152750015259, 6.488549709320068, -3.8623046875, 1.357421875, 9.111328125, -11.25, 3.0, 55.04999923706055, 2.0152671337127686, -3.8015267848968506, 2.610687017440796, 70166992.0
-5.4296875, 5.087890625, -6.7236328125, 70.3499984741211, 9.149999618530273, -105.44999694824219, 1.7480915784835815, -0.9847328066825867, 0.37404578924179077, 8.0908203125, -0.6591796875, -5.595703125, 140.10000610351562, -338.25, 77.25, 11.633587837219238, 1.770992398262024, 1.587786316871643, -8.7548828125, -1.0498046875, 4.6630859375, 28.649999618530273, 61.20000076293945, 109.3499984741211, -9.229007720947266, -6.4122138023376465, 0.6412214040756226, -9.6630859375, -0.3857421875, 2.4365234375, 61.20000076293945, 57.599998474121094, 43.650001525878906, -6.41984748840332, 5.1297712326049805, 2.282442808151245, -9.00390625, -2.158203125, 3.9111328125, 24.0, -22.200000762939453, 42.29999923706055, 0.7099236845970154, 3.4122138023376465, 0.06106870248913765, -3.9794921875, 1.3232421875, 9.130859375, -12.0, 0.75, 55.04999923706055, -0.6183205842971802, -1.893129825592041, -0.15267175436019897, 70178712.0
-5.5029296875, 5.21484375, -6.8017578125, 72.30000305175781, 7.5, -106.19999694824219, 0.32824426889419556, -3.4732823371887207, 0.5496183037757874, 8.0615234375, -0.6982421875, -5.5126953125, 140.10000610351562, -338.25, 77.25, 15.572519302368164, -2.282442808151245, 2.0610687732696533, -8.9208984375, -1.0400390625, 4.7509765625, 25.350000381469727, 60.900001525878906, 108.75, -17.595420837402344, -2.3435113430023193, 3.1221373081207275, -9.9560546875, -0.29296875, 2.5244140625, 60.900001525878906, 57.29999923706055, 44.099998474121094, -5.038167953491211, -1.8244274854660034, -1.6030534505844116, -9.0771484375, -2.03125, 4.08203125, 24.75, -22.200000762939453, 45.150001525878906, -1.839694619178772, 7.14503812789917, 0.48091602325439453, -4.0625, 1.3134765625, 9.1162109375, -12.149999618530273, 1.649999976158142, 56.400001525878906, -5.671755790710449, -2.6335878372192383, -2.885496139526367, 70190432.0
-5.517578125, 4.98046875, -6.875, 72.30000305175781, 7.5, -106.19999694824219, 1.5190839767456055, -0.7175572514533997, 0.1450381726026535, 7.9443359375, -0.5029296875, -5.634765625, 140.39999389648438, -337.6499938964844, 77.4000015258789, 19.190839767456055, -7.244274616241455, -0.580152690410614, -9.0771484375, -1.259765625, 4.697265625, 25.200000762939453, 61.5, 108.1500015258789, -16.274808883666992, -1.8702290058135986, 1.587786316871643, -9.7802734375, -0.13671875, 2.587890625, 60.900001525878906, 57.29999923706055, 44.099998474121094, -6.267175674438477, 2.9847328662872314, 0.7251908183097839, -9.306640625, -1.9580078125, 4.2822265625, 24.899999618530273, -22.350000381469727, 43.20000076293945, 0.6259542107582092, 7.732824325561523, 1.534351110458374, -4.27734375, 1.2451171875, 9.3017578125, -11.25, 2.700000047683716, 54.0, -0.1679389327764511, -0.6488549709320068, 0.5419847369194031, 70202144.0
-5.576171875, 5.0927734375, -7.1044921875, 70.5, 9.300000190734863, -104.55000305175781, 1.0076335668563843, -3.931297779083252, 0.7404580116271973, 8.115234375, -0.4638671875, -5.6201171875, 140.39999389648438, -337.6499938964844, 77.4000015258789, 19.374046325683594, -15.877862930297852, -0.030534351244568825, -8.9404296875, -1.1181640625, 5.0732421875, 25.200000762939453, 61.5, 108.1500015258789, -12.343511581420898, -2.8320610523223877, 0.5954198241233826, -10.146484375, -0.224609375, 2.5390625, 63.75, 56.25, 43.20000076293945, -3.9389312267303467, 0.572519063949585, -4.770992279052734, -9.4677734375, -1.923828125, 4.0234375, 24.899999618530273, -22.350000381469727, 43.20000076293945, 0.9618320465087891, 4.022900581359863, 0.1450381726026535, -4.3212890625, 1.298828125, 9.4189453125, -11.25, 1.5, 55.04999923706055, -5.458015441894531, 0.4351145029067993, -0.6717557311058044, 70213864.0
-5.6787109375, 5.205078125, -7.1337890625, 72.9000015258789, 7.650000095367432, -105.44999694824219, 3.2748091220855713, -2.8396947383880615, 0.5190839767456055, 8.232421875, -0.3271484375, -5.966796875, 140.5500030517578, -333.75, 78.0, 14.595419883728027, -20.64122200012207, -2.786259651184082, -9.3115234375, -1.220703125, 5.1318359375, 25.350000381469727, 61.79999923706055, 108.30000305175781, -11.641221046447754, -5.618320465087891, 0.38167938590049744, -10.2294921875, -0.3515625, 2.2998046875, 61.95000076293945, 56.099998474121094, 42.900001525878906, -8.572519302368164, 0.7099236845970154, -1.1145038604736328, -9.521484375, -1.9189453125, 4.072265625, 25.5, -22.200000762939453, 43.79999923706055, -7.3053436279296875, 4.4122138023376465, -1.2061069011688232, -4.453125, 1.26953125, 9.3115234375, -11.850000381469727, 2.8499999046325684, 55.20000076293945, -3.244274854660034, -4.755725383758545, -1.9389313459396362, 70226560.0
-5.7958984375, 5.263671875, -7.1142578125, 72.9000015258789, 7.650000095367432, -105.44999694824219, 0.8244274854660034, 1.3129770755767822, 1.229007601737976, 8.291015625, -0.41015625, -6.279296875, 139.5, -332.54998779296875, 81.9000015258789, 10.335878372192383, -18.091602325439453, 2.076335906982422, -9.3359375, -1.1328125, 5.17578125, 27.600000381469727, 61.349998474121094, 108.75, -0.2977099120616913, -10.007633209228516, 2.6641221046447754, -10.390625, -0.302734375, 2.3291015625, 61.95000076293945, 57.29999923706055, 42.599998474121094, 3.85496187210083, -2.1603052616119385, -2.7404580116271973, -9.78515625, -1.875, 3.8623046875, 25.5, -22.200000762939453, 43.79999923706055, 7.083969593048096, 3.1603052616119385, -6.137404441833496, -4.5849609375, 1.494140625, 9.4970703125, -10.5, 1.9500000476837158, 53.25, -0.49618321657180786, -1.9389313459396362, -0.42748090624809265, 70238280.0
-5.9130859375, 5.078125, -7.1826171875, 71.69999694824219, 7.949999809265137, -105.44999694824219, 4.442748069763184, 0.1221374049782753, 0.007633587811142206, 8.3154296875, -0.3271484375, -6.3916015625, 139.5, -332.54998779296875, 81.9000015258789, 4.5190839767456055, -14.809160232543945, 3.580152750015259, -9.4189453125, -1.0595703125, 5.13671875, 28.049999237060547, 62.099998474121094, 109.5, 6.916030406951904, -8.48854923248291, -3.969465732574463, -10.517578125, -0.0439453125, 2.333984375, 62.25, 57.45000076293945, 43.5, 7.122137546539307, -4.664122104644775, 0.8244274854660034, -9.5849609375, -2.0556640625, 4.150390625, 24.899999618530273, -23.399999618530273, 43.95000076293945, -0.6183205842971802, 3.2595419883728027, -9.343511581420898, -4.6533203125, 1.4501953125, 9.5263671875, -12.149999618530273, 1.649999976158142, 53.70000076293945, -1.9923664331436157, -9.702290534973145, -5.335877895355225, 70250000.0
-5.908203125, 5.029296875, -7.1875, 70.3499984741211, 7.949999809265137, -105.75, 5.473282337188721, 4.595419883728027, -0.35877862572669983, 8.26171875, -0.3759765625, -6.42578125, 136.9499969482422, -331.79998779296875, 82.19999694824219, -2.030534267425537, -7.6946563720703125, 5.297709941864014, -9.384765625, -1.03515625, 5.0537109375, 28.049999237060547, 62.099998474121094, 109.5, 14.16030502319336, -9.67175579071045, -4.938931465148926, -10.3564453125, 0.0, 2.529296875, 61.79999923706055, 59.099998474121094, 42.45000076293945, 17.03816795349121, -8.778626441955566, -3.458015203475952, -9.521484375, -1.6455078125, 4.2529296875, 24.899999618530273, -22.649999618530273, 44.70000076293945, 10.679388999938965, -1.6183205842971802, -9.51145076751709, -4.5703125, 1.4501953125, 9.3505859375, -10.800000190734863, 1.0499999523162842, 55.04999923706055, -3.748091697692871, -7.030534267425537, -4.56488561630249, 70261720.0
-5.99609375, 5.0, -7.2021484375, 71.25, 7.050000190734863, -104.8499984741211, 4.770992279052734, 4.58015251159668, -0.0, 9.6240234375, -0.6201171875, -6.064453125, 136.9499969482422, -331.79998779296875, 82.19999694824219, 1.7251908779144287, -3.4809160232543945, 1.8167939186096191, -9.169921875, -0.400390625, 5.2685546875, 28.200000762939453, 60.75, 107.8499984741211, 18.854961395263672, -18.030534744262695, -2.2290077209472656, -10.2685546875, 0.2099609375, 2.626953125, 62.25, 57.0, 43.5, 11.954198837280273, -17.793893814086914, -4.526717662811279, -9.619140625, -1.4697265625, 4.3017578125, 25.200000762939453, -23.25, 43.349998474121094, 6.389313220977783, -5.603053569793701, -15.305343627929688, -4.7265625, 1.357421875, 9.443359375, -12.0, 2.25, 54.75, 0.0, -3.641221284866333, 1.9923664331436157, 70274416.0
-6.171875, 5.029296875, -7.0751953125, 71.69999694824219, 8.399999618530273, -103.94999694824219, 7.557251930236816, 3.1297709941864014, -4.328244209289551, 8.8720703125, -0.3857421875, -6.1767578125, 135.4499969482422, -334.79998779296875, 70.80000305175781, -9.167939186096191, 6.977099418640137, -8.51145076751709, -9.43359375, -0.7373046875, 5.2490234375, 28.049999237060547, 57.45000076293945, 107.25, 17.175573348999023, -12.961832046508789, -8.167939186096191, -10.5859375, 0.576171875, 2.7490234375, 61.5, 57.45000076293945, 42.0, 12.320611000061035, -15.0, -5.190839767456055, -9.8583984375, -1.572265625, 4.66796875, 23.549999237060547, -22.649999618530273, 43.95000076293945, 3.0458016395568848, -12.916030883789062, -8.244275093078613, -4.6337890625, 1.5625, 9.4775390625, -11.100000381469727, 0.44999998807907104, 54.900001525878906, -3.992366313934326, -7.908397197723389, 1.770992398262024, 70287112.0
-6.083984375, 5.2587890625, -6.97265625, 70.5, 7.050000190734863, -105.9000015258789, 8.793892860412598, 3.458015203475952, -5.396946430206299, 8.9794921875, -0.5224609375, -5.6005859375, 130.5, -336.45001220703125, 66.0, 3.648854970932007, 4.572519302368164, -11.961832046508789, -9.2333984375, -0.947265625, 4.94140625, 28.950000762939453, 61.20000076293945, 107.8499984741211, 7.832061290740967, -5.954198360443115, -21.709922790527344, -10.244140625, 0.41015625, 2.4365234375, 61.95000076293945, 57.29999923706055, 42.900001525878906, 6.847328186035156, -14.480916023254395, -9.847328186035156, -9.6533203125, -1.5869140625, 4.3359375, 23.850000381469727, -23.399999618530273, 42.45000076293945, 6.099236488342285, -17.23664093017578, -9.374045372009277, -4.384765625, 1.533203125, 9.5947265625, -12.0, 0.0, 54.29999923706055, 2.9465649127960205, -12.977099418640137, 3.175572633743286, 70298832.0
-6.044921875, 5.2197265625, -7.0703125, 72.1500015258789, 6.900000095367432, -103.6500015258789, 10.38167953491211, 11.19847297668457, -10.358778953552246, 9.3017578125, -0.0048828125, -5.8154296875, 126.1500015258789, -339.45001220703125, 60.599998474121094, 39.47328186035156, 5.114503860473633, -22.809160232543945, -9.326171875, -0.322265625, 4.8388671875, 28.799999237060547, 61.349998474121094, 106.5, 14.366412162780762, 1.503816843032837, -16.885496139526367, -10.3271484375, 0.224609375, 2.2705078125, 61.95000076293945, 57.29999923706055, 42.900001525878906, 2.351145029067993, -12.152671813964844, -6.076335906982422, -9.6435546875, -1.93359375, 4.1064453125, 23.850000381469727, -23.399999618530273, 42.45000076293945, -1.389312982559204, -13.496183395385742, -8.068702697753906, -4.47265625, 1.5087890625, 9.345703125, -12.75, 1.9500000476837158, 55.04999923706055, 3.3664121627807617, -12.702290534973145, 3.8396947383880615, 70310544.0
-6.0400390625, 5.01953125, -6.806640625, 70.6500015258789, 7.650000095367432, -104.69999694824219, 12.763359069824219, 6.740458011627197, -10.41984748840332, 8.8037109375, 0.6494140625, -5.478515625, 120.5999984741211, -343.5, 55.5, -3.0916030406951904, 24.43511390686035, -25.74045753479004, -9.5458984375, -0.7763671875, 3.984375, 30.149999618530273, 59.25, 105.5999984741211, 2.137404680252075, 1.6335878372192383, -21.282442092895508, -9.94140625, -0.2880859375, 1.9873046875, 61.20000076293945, 56.54999923706055, 41.099998474121094, 8.90839672088623, -13.22137451171875, -6.541984558105469, -9.5361328125, -1.6455078125, 4.482421875, 25.200000762939453, -22.5, 44.099998474121094, 10.015267372131348, -13.282443046569824, -12.374045372009277, -4.4580078125, 1.6552734375, 9.3408203125, -12.75, 1.9500000476837158, 55.04999923706055, 0.007633587811142206, -11.900763511657715, 7.068702220916748, 70322264.0
