78419.0, 89307.0, 408.0, -5.908203125, -9.47265625, -7.0654296875, 34.16030502319336, 17.755725860595703, -38.07633590698242, 36.900001525878906, -14.699999809265137, -40.5, 25047852.0
78415.0, 89302.0, 400.0, -5.732421875, -9.794921875, -6.9775390625, 39.09923553466797, 21.106870651245117, -46.74809265136719, 36.900001525878906, -14.699999809265137, -40.5, 25052734.0
78415.0, 89303.0, 400.0, -5.3125, -10.2099609375, -6.9189453125, 38.114505767822266, 18.4427490234375, -48.564884185791016, 34.349998474121094, -15.449999809265137, -39.29999923706055, 25057616.0
78425.0, 89310.0, 407.0, -5.0537109375, -10.5859375, -7.0556640625, 23.32061004638672, 20.709922790527344, -52.1984748840332, 34.349998474121094, -15.449999809265137, -39.29999923706055, 25062500.0
78421.0, 89329.0, 404.0, -3.955078125, -10.732421875, -7.24609375, 17.862594604492188, 23.74045753479004, -65.97709655761719, 33.0, -18.75, -41.400001525878906, 25078124.0
78428.0, 89327.0, 404.0, -3.7548828125, -10.5859375, -7.470703125, 14.137404441833496, 22.80152702331543, -69.76335906982422, 33.0, -18.75, -41.400001525878906, 25083008.0
78424.0, 89323.0, 403.0, -3.0419921875, -9.892578125, -7.626953125, 8.885496139526367, 29.832061767578125, -94.00763702392578, 31.950000762939453, -22.649999618530273, -45.75, 25093750.0
78433.0, 89338.0, 404.0, -2.412109375, -9.6923828125, -8.271484375, 4.114503860473633, 25.267175674438477, -117.78626251220703, 27.299999237060547, -25.799999237060547, -47.400001525878906, 25108398.0
78430.0, 89320.0, 398.0, -2.2314453125, -9.43359375, -8.5205078125, -2.137404680252075, 6.923664093017578, -129.76336669921875, 28.200000762939453, -27.600000381469727, -50.099998474121094, 25123046.0
78423.0, 89289.0, 396.0, -1.6064453125, -8.14453125, -8.623046875, -6.2366414070129395, -16.351144790649414, -148.67938232421875, 26.850000381469727, -28.350000381469727, -52.650001525878906, 25137696.0
78415.0, 89279.0, 402.0, -1.23046875, -7.5439453125, -8.6181640625, -6.458015441894531, -26.282442092895508, -149.3282470703125, 26.850000381469727, -28.350000381469727, -52.650001525878906, 25142578.0
78413.0, 89251.0, 400.0, -0.6201171875, -6.09375, -8.3203125, -14.053435325622559, -26.908397674560547, -159.06871032714844, 26.100000381469727, -28.350000381469727, -52.650001525878906, 25153320.0
78405.0, 89234.0, 388.0, -0.673828125, -5.595703125, -8.115234375, -13.748091697692871, -24.793893814086914, -160.38931274414062, 26.100000381469727, -28.799999237060547, -51.900001525878906, 25157226.0
78398.0, 89216.0, 400.0, -0.302734375, -4.6826171875, -8.173828125, -18.06106948852539, -22.297710418701172, -162.42747497558594, 24.149999618530273, -28.049999237060547, -54.0, 25168944.0
78392.0, 89198.0, 401.0, -0.3515625, -4.7900390625, -8.3642578125, -18.267175674438477, -17.076335906982422, -163.04580688476562, 24.149999618530273, -28.049999237060547, -54.0, 25172852.0
78383.0, 89164.0, 398.0, -0.3955078125, -5.107421875, -8.5400390625, -22.0, -19.229007720947266, -139.98472595214844, 26.100000381469727, -26.100000381469727, -54.0, 25183592.0
78349.0, 89081.0, 388.0, -0.888671875, -5.537109375, -8.1640625, 13.099236488342285, -71.83206176757812, -51.946563720703125, 25.649999618530273, -21.450000762939453, -53.400001525878906, 25212890.0
78347.0, 89076.0, 386.0, -0.8837890625, -5.29296875, -7.55859375, 13.068702697753906, -78.00763702392578, -48.19084167480469, 25.649999618530273, -21.450000762939453, -53.400001525878906, 25216796.0
78341.0, 89073.0, 382.0, -1.1474609375, -4.51171875, -5.9423828125, 34.57251739501953, -99.03053283691406, -44.74045944213867, 26.850000381469727, -19.200000762939453, -52.95000076293945, 25228516.0
78335.0, 89048.0, 388.0, -1.6259765625, -4.3701171875, -3.7646484375, 45.93893051147461, -101.96946716308594, -76.06106567382812, 27.899999618530273, -19.200000762939453, -50.400001525878906, 25243164.0
78336.0, 89030.0, 382.0, -1.826171875, -5.380859375, -2.0751953125, 44.35114669799805, -91.27481079101562, -115.6259536743164, 31.049999237060547, -15.149999618530273, -46.20000076293945, 25258788.0
78325.0, 89024.0, 386.0, -1.982421875, -5.390625, -1.6064453125, 55.58778762817383, -88.92366790771484, -122.58778381347656, 31.049999237060547, -15.149999618530273, -46.20000076293945, 25262696.0
78327.0, 89007.0, 382.0, -2.55859375, -6.5625, -1.1328125, 44.90839767456055, -72.9542007446289, -151.31297302246094, 31.5, -12.300000190734863, -41.70000076293945, 25273436.0
78315.0, 88992.0, 384.0, -3.65234375, -8.3056640625, -1.03515625, 47.83969497680664, -49.52671813964844, -181.64122009277344, 32.70000076293945, -13.050000190734863, -40.20000076293945, 25288084.0
78316.0, 88979.0, 387.0, -2.7783203125, -11.8994140625, -1.494140625, 47.732826232910156, -23.9007625579834, -212.38168334960938, 33.29999923706055, -13.199999809265137, -37.20000076293945, 25302734.0
78292.0, 88940.0, 373.0, 1.611328125, -18.291015625, -1.2353515625, 63.786258697509766, -29.893129348754883, -179.4198455810547, 30.600000381469727, -12.75, -32.849998474121094, 25333008.0
78284.0, 88930.0, 374.0, 0.8984375, -16.6845703125, -0.01953125, 62.60305404663086, -35.50381851196289, -122.9542007446289, 31.350000381469727, -12.449999809265137, -31.649999618530273, 25347656.0
78289.0, 88935.0, 377.0, 0.2001953125, -13.4765625, 1.1279296875, 52.66412353515625, -29.473281860351562, -68.2977066040039, 31.950000762939453, -14.550000190734863, -29.700000762939453, 25363280.0
78298.0, 88936.0, 374.0, -0.2099609375, -12.71484375, 1.328125, 46.625953674316406, -24.40458106994629, -56.22137451171875, 31.950000762939453, -14.550000190734863, -29.700000762939453, 25367188.0
78300.0, 88946.0, 378.0, -0.986328125, -10.4345703125, 1.66015625, 34.02289962768555, -16.129770278930664, -36.511451721191406, 29.850000381469727, -14.699999809265137, -29.100000381469727, 25378906.0
78301.0, 88947.0, 377.0, -1.083984375, -9.8291015625, 1.8701171875, 32.610687255859375, -7.0916032791137695, -33.60305404663086, 30.299999237060547, -15.449999809265137, -27.75, 25382812.0
78301.0, 88956.0, 379.0, -0.99609375, -8.818359375, 1.6796875, 26.312976837158203, 3.1984732151031494, -34.25190734863281, 30.600000381469727, -16.200000762939453, -27.299999237060547, 25393554.0
78304.0, 88964.0, 379.0, -0.0439453125, -9.6435546875, 1.103515625, 28.06106948852539, 18.687023162841797, -39.2442741394043, 31.950000762939453, -14.550000190734863, -27.149999618530273, 25408204.0
78313.0, 88973.0, 385.0, 0.4638671875, -10.3076171875, 0.7763671875, 26.732824325561523, 34.79389190673828, -40.847328186035156, 29.850000381469727, -16.200000762939453, -28.799999237060547, 25422852.0
78315.0, 88984.0, 381.0, 0.947265625, -10.9619140625, -0.1904296875, 14.633587837219238, 51.4427490234375, -30.328245162963867, 29.850000381469727, -16.200000762939453, -28.799999237060547, 25437500.0
78315.0, 88983.0, 376.0, 0.9814453125, -11.2353515625, -0.576171875, 11.70992374420166, 55.48091506958008, -26.54198455810547, 27.75, -15.449999809265137, -27.75, 25442382.0
78318.0, 88987.0, 380.0, 0.8544921875, -11.708984375, -1.7626953125, 7.14503812789917, 57.74045944213867, -19.633588790893555, 28.5, -15.899999618530273, -27.0, 25453124.0
78321.0, 88995.0, 377.0, 0.7763671875, -11.6064453125, -2.138671875, 0.25190839171409607, 59.511451721191406, -15.374046325683594, 28.5, -15.899999618530273, -27.0, 25457032.0
78324.0, 89001.0, 381.0, 0.6591796875, -11.4501953125, -2.8857421875, -1.8625954389572144, 51.70228958129883, -10.977099418640137, 29.549999237060547, -13.949999809265137, -28.799999237060547, 25468750.0
78321.0, 89017.0, 378.0, 0.5224609375, -11.3623046875, -3.154296875, -6.458015441894531, 42.08396911621094, -3.610687017440796, 27.75, -13.5, -28.049999237060547, 25482420.0
78333.0, 89027.0, 379.0, 0.439453125, -11.1962890625, -3.3984375, -4.549618244171143, 36.656490325927734, -1.7022900581359863, 27.75, -13.5, -28.049999237060547, 25487304.0
78343.0, 89052.0, 381.0, 0.634765625, -10.8203125, -3.49609375, 2.1221373081207275, 39.67938995361328, 2.389312982559204, 27.899999618530273, -12.300000190734863, -28.649999618530273, 25498046.0
78345.0, 89045.0, 381.0, 0.64453125, -10.76171875, -3.75, -0.6870229244232178, 43.374046325683594, -0.11450381577014923, 25.799999237060547, -11.699999809265137, -28.799999237060547, 25501952.0
78348.0, 89055.0, 378.0, 0.3271484375, -10.8203125, -4.2626953125, -12.137404441833496, 41.946563720703125, 3.5648856163024902, 25.5, -12.449999809265137, -29.549999237060547, 25513672.0
78350.0, 89069.0, 381.0, 0.234375, -10.6640625, -4.638671875, -9.595419883728027, 43.85496139526367, 9.335877418518066, 24.75, -12.0, -29.100000381469727, 25528320.0
78361.0, 89087.0, 378.0, 0.5078125, -10.9326171875, -5.1513671875, -2.2671756744384766, 43.45801544189453, 22.22137451171875, 22.5, -10.949999809265137, -29.850000381469727, 25542968.0
78363.0, 89105.0, 378.0, 0.595703125, -10.595703125, -5.302734375, 5.167939186096191, 33.8015251159668, 30.824426651000977, 22.5, -10.949999809265137, -29.850000381469727, 25557616.0
78357.0, 89107.0, 380.0, 0.703125, -10.5029296875, -5.4345703125, 6.038167953491211, 33.08396911621094, 31.32061004638672, 22.799999237060547, -10.350000381469727, -31.200000762939453, 25562500.0
78368.0, 89131.0, 378.0, 0.4296875, -10.4541015625, -4.6484375, 17.76335906982422, 11.725191116333008, 16.67938995361328, 20.700000762939453, -10.050000190734863, -30.299999237060547, 25588868.0
78376.0, 89134.0, 382.0, 0.5224609375, -10.6298828125, -4.4580078125, 11.786259651184082, 10.87022876739502, 18.519084930419922, 20.700000762939453, -10.050000190734863, -30.299999237060547, 25592772.0
78378.0, 89147.0, 379.0, 0.17578125, -10.8203125, -3.9111328125, 14.755724906921387, 1.1832060813903809, 23.496183395385742, 20.700000762939453, -10.050000190734863, -30.299999237060547, 25603516.0
78384.0, 89163.0, 384.0, 0.0244140625, -10.6640625, -3.1591796875, 24.145038604736328, -9.687023162841797, 40.01526641845703, 21.600000381469727, -9.149999618530273, -31.200000762939453, 25617188.0
78391.0, 89178.0, 382.0, -0.283203125, -10.205078125, -2.451171875, 21.67938995361328, -10.725191116333008, 38.26717758178711, 21.600000381469727, -8.399999618530273, -31.200000762939453, 25632812.0
78387.0, 89192.0, 385.0, -0.2783203125, -9.7802734375, -1.9677734375, 26.32061004638672, -13.229007720947266, 26.557252883911133, 23.549999237060547, -11.100000381469727, -31.200000762939453, 25647460.0
78383.0, 89199.0, 381.0, -0.3125, -10.0390625, -1.8994140625, 23.77862548828125, -14.648855209350586, 19.717557907104492, 23.549999237060547, -11.100000381469727, -31.200000762939453, 25652344.0
78385.0, 89198.0, 384.0, 0.048828125, -10.5615234375, -1.474609375, 14.274808883666992, -14.41984748840332, 12.389312744140625, 23.700000762939453, -11.25, -30.600000381469727, 25663084.0
78383.0, 89204.0, 389.0, 0.146484375, -10.8447265625, -1.416015625, 20.251909255981445, -10.16030502319336, 5.603053569793701, 22.200000762939453, -12.0, -31.049999237060547, 25678710.0
78384.0, 89210.0, 385.0, 0.2490234375, -10.9521484375, -1.3232421875, 15.259542465209961, -4.541984558105469, -0.030534351244568825, 22.200000762939453, -12.0, -31.049999237060547, 25682616.0
78387.0, 89217.0, 381.0, 0.0732421875, -10.7275390625, -1.484375, 6.832061290740967, 2.7404580116271973, -10.862595558166504, 25.5, -11.699999809265137, -30.299999237060547, 25693360.0
78382.0, 89225.0, 391.0, 0.1318359375, -9.4921875, -2.8076171875, -1.2366411685943604, -9.030534744262695, -55.04580307006836, 22.799999237060547, -11.100000381469727, -30.149999618530273, 25708008.0
78384.0, 89229.0, 387.0, 0.1220703125, -9.1015625, -3.2177734375, 16.862594604492188, -19.18320655822754, -79.40457916259766, 22.799999237060547, -11.100000381469727, -30.149999618530273, 25712890.0
78379.0, 89229.0, 391.0, 0.5322265625, -9.0869140625, -3.1982421875, 25.824426651000977, -37.992366790771484, -129.04580688476562, 22.799999237060547, -11.100000381469727, -30.149999618530273, 25723632.0
78358.0, 89218.0, 390.0, 2.3681640625, -9.423828125, -2.5439453125, 3.9007632732391357, -32.3129768371582, -184.71755981445312, 23.25, -12.449999809265137, -29.549999237060547, 25738280.0
78354.0, 89204.0, 383.0, 2.5830078125, -9.8388671875, -2.7587890625, 3.5648856163024902, -26.091602325439453, -201.19847106933594, 23.25, -12.449999809265137, -29.549999237060547, 25743164.0
78333.0, 89175.0, 388.0, 3.037109375, -10.72265625, -3.33984375, -8.267175674438477, -27.45801544189453, -224.98472595214844, 21.149999618530273, -12.449999809265137, -29.850000381469727, 25753906.0
78328.0, 89176.0, 384.0, 3.1884765625, -10.830078125, -3.5302734375, -5.1984734535217285, -31.832061767578125, -237.17556762695312, 21.75, -13.949999809265137, -29.850000381469727, 25757812.0
78320.0, 89147.0, 389.0, 3.3349609375, -10.830078125, -3.486328125, 14.061068534851074, -38.038169860839844, -250.1374053955078, 21.75, -13.949999809265137, -29.850000381469727, 25768554.0
78308.0, 89129.0, 393.0, 3.2861328125, -10.8203125, -2.8857421875, 28.648855209350586, -49.38167953491211, -250.1374053955078, 19.649999618530273, -12.75, -28.799999237060547, 25783204.0
78300.0, 89099.0, 392.0, 3.310546875, -11.396484375, -2.59765625, 25.717557907104492, -39.64885330200195, -219.4656524658203, 21.149999618530273, -17.100000381469727, -27.75, 25797852.0
78294.0, 89107.0, 381.0, 3.2958984375, -11.484375, -2.3486328125, 24.18320655822754, -37.13740539550781, -201.17556762695312, 21.149999618530273, -17.100000381469727, -27.75, 25802734.0
78293.0, 89084.0, 388.0, 3.095703125, -11.9189453125, -2.529296875, 22.129770278930664, -36.63358688354492, -156.66412353515625, 19.649999618530273, -17.399999618530273, -25.950000762939453, 25813476.0
78297.0, 89076.0, 383.0, 2.6171875, -11.85546875, -2.2900390625, 20.519084930419922, -44.671756744384766, -79.35114288330078, 19.5, -18.450000762939453, -25.649999618530273, 25828124.0
78299.0, 89067.0, 388.0, 2.587890625, -11.3623046875, -1.3427734375, 27.335878372192383, -45.389312744140625, -10.358778953552246, 19.5, -18.450000762939453, -25.649999618530273, 25842772.0
78299.0, 89068.0, 384.0, 2.822265625, -11.97265625, -0.9033203125, 4.511450290679932, -31.93893051147461, 47.931297302246094, 18.899999618530273, -22.799999237060547, -25.200000762939453, 25857420.0
78294.0, 89054.0, 381.0, 2.8076171875, -11.9384765625, -0.869140625, 2.9847328662872314, -28.908397674560547, 69.2595443725586, 18.899999618530273, -22.799999237060547, -25.200000762939453, 25863280.0
78283.0, 89019.0, 385.0, 2.373046875, -12.5, -1.396484375, -26.824426651000977, -11.38167953491211, 187.43511962890625, 20.399999618530273, -21.600000381469727, -23.700000762939453, 25888672.0
78265.0, 88995.0, 380.0, 3.0224609375, -12.3828125, -1.2255859375, -40.786258697509766, 0.2671755850315094, 242.7862548828125, 21.75, -22.049999237060547, -26.25, 25903320.0
78261.0, 88988.0, 378.0, 3.369140625, -12.001953125, -1.1279296875, -56.49618148803711, 10.473282814025879, 250.12977600097656, 22.350000381469727, -23.399999618530273, -25.049999237060547, 25908204.0
78249.0, 88969.0, 385.0, 2.96875, -11.328125, -1.484375, -66.3969497680664, 22.41984748840332, 250.12977600097656, 23.100000381469727, -20.700000762939453, -26.100000381469727, 25918944.0
78252.0, 88971.0, 381.0, 2.294921875, -11.2890625, -1.7578125, -69.05343627929688, 29.862594604492188, 250.12977600097656, 23.100000381469727, -20.700000762939453, -26.100000381469727, 25922852.0
78254.0, 88981.0, 392.0, 0.9716796875, -11.25, -2.509765625, -61.3129768371582, 32.068702697753906, 250.12977600097656, 24.0, -20.100000381469727, -26.700000762939453, 25933592.0
78271.0, 88991.0, 386.0, 0.361328125, -9.9755859375, -2.802734375, -43.488548278808594, 14.954198837280273, 250.12977600097656, 27.299999237060547, -19.649999618530273, -30.299999237060547, 25948242.0
78268.0, 88997.0, 379.0, -0.09765625, -9.70703125, -2.9150390625, -39.610687255859375, 15.22137451171875, 250.12977600097656, 27.299999237060547, -19.649999618530273, -30.299999237060547, 25953124.0
78279.0, 89006.0, 385.0, -0.576171875, -10.615234375, -2.5390625, -25.32061004638672, 7.022900581359863, 250.12977600097656, 28.049999237060547, -19.649999618530273, -29.100000381469727, 25963868.0
78291.0, 89021.0, 386.0, -0.87890625, -10.9716796875, -2.3095703125, -20.755725860595703, 10.435114860534668, 250.12977600097656, 29.549999237060547, -19.649999618530273, -29.549999237060547, 25967772.0
78288.0, 89021.0, 392.0, -0.9228515625, -10.76171875, -1.9873046875, -22.610687255859375, 22.74045753479004, 250.12977600097656, 32.54999923706055, -19.350000381469727, -31.350000381469727, 25978516.0
78304.0, 89044.0, 385.0, -0.947265625, -9.794921875, -1.5673828125, -24.366413116455078, 44.96183395385742, 250.12977600097656, 32.54999923706055, -16.649999618530273, -31.350000381469727, 25993164.0
78301.0, 89050.0, 381.0, -1.15234375, -8.9013671875, -1.6796875, -34.25190734863281, 51.671756744384766, 250.12977600097656, 36.0, -16.799999237060547, -30.75, 25998046.0
78318.0, 89071.0, 382.0, -2.1337890625, -6.4794921875, -2.2021484375, -34.725189208984375, 62.70228958129883, 250.12977600097656, 36.0, -16.799999237060547, -30.75, 26008788.0
78330.0, 89093.0, 388.0, -3.857421875, -5.5126953125, -2.96875, -37.564884185791016, 60.09160232543945, 250.12977600097656, 39.150001525878906, -12.75, -32.400001525878906, 26023436.0
78323.0, 89092.0, 387.0, -4.66796875, -6.4501953125, -3.1396484375, -31.16030502319336, 57.725189208984375, 250.12977600097656, 39.45000076293945, -10.050000190734863, -34.20000076293945, 26038084.0
78313.0, 89096.0, 384.0, -5.15625, -7.1142578125, -3.5693359375, -17.305343627929688, 52.98473358154297, 244.47328186035156, 40.79999923706055, -8.699999809265137, -35.849998474121094, 26052734.0
78314.0, 89080.0, 389.0, -5.3173828125, -7.0068359375, -4.150390625, -13.32824420928955, 45.28244400024414, 216.8473358154297, 42.29999923706055, -6.150000095367432, -35.849998474121094, 26068360.0
78287.0, 89070.0, 387.0, -5.9228515625, -6.4453125, -4.541015625, -13.335878372192383, 35.19084167480469, 174.52671813964844, 43.5, -4.349999904632568, -34.20000076293945, 26083008.0
78257.0, 89065.0, 388.0, -6.19140625, -6.572265625, -4.8193359375, -4.206106662750244, 24.519084930419922, 142.42747497558594, 43.20000076293945, -4.800000190734863, -36.0, 26097656.0
78261.0, 89062.0, 391.0, -6.455078125, -6.4111328125, -4.716796875, -7.809160232543945, 22.534351348876953, 126.73282623291016, 43.20000076293945, -4.800000190734863, -36.0, 26102540.0
78256.0, 89054.0, 394.0, -6.6259765625, -6.201171875, -4.521484375, -3.9083969593048096, 8.740458488464355, 98.47328186035156, 43.349998474121094, -1.5, -38.099998474121094, 26113280.0
78259.0, 89056.0, 388.0, -6.5869140625, -6.3623046875, -4.7998046875, -4.603053569793701, 9.045801162719727, 85.38931274414062, 43.349998474121094, -1.5, -38.099998474121094, 26118164.0
78260.0, 89077.0, 394.0, -6.6796875, -5.6201171875, -4.599609375, 4.137404441833496, 0.28244274854660034, 57.450382232666016, 43.349998474121094, -1.5, -38.099998474121094, 26128906.0
78280.0, 89087.0, 395.0, -6.62109375, -5.244140625, -4.541015625, -0.5190839767456055, 0.3664122223854065, 41.02289962768555, 44.400001525878906, -1.0499999523162842, -37.04999923706055, 26132812.0
78302.0, 89119.0, 397.0, -6.923828125, -4.326171875, -4.443359375, 14.061068534851074, -6.572519302368164, 2.7633588314056396, 43.650001525878906, 0.0, -37.04999923706055, 26143554.0
78327.0, 89160.0, 390.0, -6.767578125, -4.98046875, -3.9404296875, 18.450382232666016, -15.41984748840332, -38.67938995361328, 42.45000076293945, -0.44999998807907104, -37.20000076293945, 26158204.0
78326.0, 89163.0, 386.0, -6.7431640625, -5.234375, -3.7841796875, 19.58015251159668, -14.526717185974121, -46.549617767333984, 45.0, -2.0999999046325684, -39.29999923706055, 26163084.0
78341.0, 89160.0, 393.0, -6.611328125, -6.69921875, -3.6474609375, 10.152671813964844, -14.67175579071045, -52.404579162597656, 45.0, -2.0999999046325684, -39.29999923706055, 26173828.0
78337.0, 89187.0, 392.0, -6.73828125, -8.5498046875, -3.4521484375, 15.0, -12.748091697692871, -36.12213897705078, 44.25, -1.649999976158142, -36.45000076293945, 26188476.0
78344.0, 89203.0, 395.0, -6.8359375, -7.7294921875, -3.671875, 12.29007625579834, -14.70992374420166, -33.007633209228516, 43.650001525878906, -1.7999999523162842, -37.650001525878906, 26203124.0
78358.0, 89214.0, 396.0, -6.826171875, -6.337890625, -3.8818359375, 17.870229721069336, -21.366413116455078, -56.74809265136719, 43.95000076293945, -1.649999976158142, -36.75, 26217772.0
78368.0, 89234.0, 396.0, -6.2158203125, -4.677734375, -4.1015625, 35.90839767456055, -42.91603088378906, -131.2061004638672, 43.95000076293945, -3.1500000953674316, -36.45000076293945, 26232420.0
78377.0, 89238.0, 385.0, -6.064453125, -3.7890625, -3.916015625, 30.030534744262695, -49.4427490234375, -171.91603088378906, 43.95000076293945, -3.1500000953674316, -36.45000076293945, 26238280.0
78385.0, 89261.0, 389.0, -5.0830078125, -0.0830078125, -3.2568359375, 34.85496139526367, -65.61068725585938, -250.1374053955078, 43.349998474121094, -3.450000047683716, -35.54999923706055, 26248046.0
78397.0, 89268.0, 390.0, -4.2724609375, 0.5322265625, -2.919921875, 32.114505767822266, -64.74809265136719, -250.1374053955078, 44.25, -5.099999904632568, -36.0, 26252928.0
78426.0, 89302.0, 393.0, -1.8017578125, -0.2734375, -1.3671875, 19.610687255859375, -49.33587646484375, -250.1374053955078, 42.0, -7.800000190734863, -35.400001525878906, 26263672.0
78460.0, 89344.0, 399.0, 1.5185546875, -3.1201171875, -1.23046875, -9.12977123260498, -1.4427480697631836, -250.1374053955078, 40.79999923706055, -9.600000381469727, -34.04999923706055, 26278320.0
78463.0, 89357.0, 390.0, 2.333984375, -4.6435546875, -1.5478515625, -10.885496139526367, 12.809160232543945, -250.1374053955078, 36.599998474121094, -12.449999809265137, -34.20000076293945, 26283204.0
78475.0, 89398.0, 396.0, 3.984375, -8.02734375, -1.8505859375, -12.832060813903809, 40.95419692993164, -250.1374053955078, 36.599998474121094, -12.449999809265137, -34.20000076293945, 26293944.0
78477.0, 89414.0, 390.0, 4.6435546875, -9.27734375, -2.099609375, -1.85496187210083, 43.152671813964844, -250.1374053955078, 36.599998474121094, -12.449999809265137, -34.20000076293945, 26297852.0
78485.0, 89425.0, 405.0, 5.390625, -12.94921875, -2.978515625, 46.625953674316406, 38.42748260498047, -250.1374053955078, 28.799999237060547, -13.5, -33.150001525878906, 26308592.0
78474.0, 89439.0, 402.0, 4.7998046875, -16.6259765625, -4.0380859375, 102.52671813964844, -11.816794395446777, -250.1374053955078, 22.950000762939453, -17.100000381469727, -32.400001525878906, 26323242.0
78464.0, 89456.0, 409.0, 5.859375, -19.697265625, -5.05859375, 94.92366790771484, -68.73282623291016, -250.1374053955078, 18.450000762939453, -17.850000381469727, -29.850000381469727, 26338868.0
78464.0, 89465.0, 397.0, 6.1865234375, -19.8486328125, -4.82421875, 90.21373748779297, -82.69465637207031, -250.1374053955078, 18.450000762939453, -17.850000381469727, -29.850000381469727, 26342772.0
78476.0, 89490.0, 401.0, 6.806640625, -18.96484375, -3.0419921875, 79.114501953125, -86.96946716308594, -209.9236602783203, 16.5, -18.0, -28.649999618530273, 26353516.0
78489.0, 89509.0, 405.0, 6.6748046875, -14.794921875, -0.0634765625, 15.0, -35.152671813964844, 8.32824420928955, 17.549999237060547, -19.950000762939453, -24.600000381469727, 26368164.0
78506.0, 89524.0, 400.0, 6.6943359375, -13.0517578125, 0.3466796875, -11.206107139587402, -10.5496187210083, 58.12213897705078, 16.649999618530273, -20.100000381469727, -25.200000762939453, 26373046.0
78517.0, 89537.0, 419.0, 6.23046875, -10.244140625, -0.17578125, -42.511451721191406, 37.25190734863281, 99.45801544189453, 16.799999237060547, -19.200000762939453, -25.649999618530273, 26383788.0
78518.0, 89533.0, 409.0, 5.6005859375, -9.3359375, -0.751953125, -63.04580307006836, 45.26717758178711, 99.58778381347656, 16.799999237060547, -19.200000762939453, -25.649999618530273, 26387696.0
78521.0, 89526.0, 402.0, 4.2822265625, -8.37890625, -2.3291015625, -57.66412353515625, 41.96183395385742, 74.93893432617188, 16.799999237060547, -19.200000762939453, -25.649999618530273, 26398436.0
78522.0, 89515.0, 411.0, 2.8564453125, -8.017578125, -3.095703125, -26.725191116333008, 8.87022876739502, 13.053435325622559, 17.25, -19.950000762939453, -26.399999618530273, 26413084.0
78518.0, 89499.0, 398.0, 2.4462890625, -8.3837890625, -1.9970703125, 12.435114860534668, -13.259542465209961, -25.755725860595703, 16.350000381469727, -20.100000381469727, -27.75, 26427734.0
78512.0, 89472.0, 403.0, 3.1005859375, -9.4580078125, -1.6357421875, 9.259542465209961, -11.251908302307129, -26.39694595336914, 16.649999618530273, -20.850000381469727, -27.0, 26443360.0
78499.0, 89459.0, 400.0, 3.994140625, -10.6689453125, -2.109375, 9.358778953552246, -1.961832046508789, 2.3816792964935303, 16.350000381469727, -20.850000381469727, -27.0, 26458008.0
78496.0, 89444.0, 395.0, 4.1455078125, -11.1181640625, -2.3486328125, -4.511450290679932, 1.7251908779144287, 15.725191116333008, 16.350000381469727, -20.850000381469727, -27.0, 26462890.0
78490.0, 89426.0, 402.0, 4.5654296875, -11.2255859375, -2.744140625, -3.1679389476776123, 3.351145029067993, 46.167938232421875, 15.899999618530273, -19.350000381469727, -27.0, 26473632.0
78472.0, 89400.0, 401.0, 4.5263671875, -11.8701171875, -3.1298828125, 12.061068534851074, -7.847328186035156, 94.73282623291016, 17.100000381469727, -20.850000381469727, -27.0, 26488280.0
78471.0, 89395.0, 396.0, 4.4970703125, -11.650390625, -3.4228515625, 8.977099418640137, -13.38167953491211, 111.78626251220703, 18.149999618530273, -20.549999237060547, -28.5, 26493164.0
78460.0, 89379.0, 401.0, 4.1650390625, -11.201171875, -2.7197265625, 18.175573348999023, -17.671754837036133, 137.5572509765625, 18.299999237060547, -20.700000762939453, -27.149999618530273, 26503906.0
78452.0, 89363.0, 394.0, 4.1455078125, -10.8544921875, -2.5634765625, 14.641221046447754, -17.854961395263672, 145.29006958007812, 18.299999237060547, -20.700000762939453, -27.149999618530273, 26507812.0
78441.0, 89336.0, 395.0, 3.3837890625, -10.3662109375, -2.109375, 4.900763511657715, -12.938931465148926, 154.2137451171875, 18.75, -19.950000762939453, -26.399999618530273, 26518554.0
78425.0, 89318.0, 407.0, 2.841796875, -10.146484375, -2.2412109375, 3.2290077209472656, -7.938931465148926, 156.76336669921875, 19.950000762939453, -22.049999237060547, -25.950000762939453, 26533204.0
78419.0, 89309.0, 403.0, 2.51953125, -10.5322265625, -2.314453125, 14.526717185974121, -8.030534744262695, 164.0992431640625, 19.799999237060547, -21.450000762939453, -27.899999618530273, 26538084.0
78399.0, 89269.0, 403.0, 2.080078125, -10.8837890625, -2.4365234375, 10.335878372192383, -11.358778953552246, 175.5419921875, 20.850000381469727, -21.899999618530273, -28.649999618530273, 26548828.0
78367.0, 89231.0, 398.0, 1.5087890625, -12.109375, -2.65625, 21.648855209350586, -21.16030502319336, 211.68702697753906, 22.049999237060547, -20.700000762939453, -28.200000762939453, 26563476.0
78318.0, 89160.0, 406.0, 2.3291015625, -13.427734375, -1.8798828125, 17.770992279052734, -11.58015251159668, 250.12977600097656, 21.600000381469727, -22.200000762939453, -28.649999618530273, 26578124.0
78300.0, 89126.0, 398.0, 2.5048828125, -12.705078125, -1.474609375, 7.442748069763184, -1.4427480697631836, 250.12977600097656, 21.600000381469727, -22.200000762939453, -28.649999618530273, 26583008.0
78266.0, 89091.0, 408.0, 2.0556640625, -11.7919921875, -0.8203125, -4.068702220916748, 22.0, 250.12977600097656, 24.149999618530273, -20.25, -28.649999618530273, 26593750.0
78267.0, 89084.0, 404.0, 1.71875, -11.3427734375, -0.9326171875, -16.335878372192383, 28.74045753479004, 250.12977600097656, 26.850000381469727, -22.200000762939453, -28.950000762939453, 26598632.0
78263.0, 89064.0, 406.0, 1.09375, -11.1474609375, -1.513671875, -13.229007720947266, 46.1297721862793, 250.12977600097656, 26.850000381469727, -21.0, -29.399999618530273, 26608398.0
78261.0, 89073.0, 408.0, -0.1513671875, -10.4736328125, -2.2119140625, -20.39694595336914, 51.61832046508789, 250.12977600097656, 29.549999237060547, -20.850000381469727, -29.100000381469727, 26623046.0
78268.0, 89080.0, 400.0, -0.3173828125, -10.3662109375, -2.24609375, -12.564885139465332, 49.95419692993164, 250.12977600097656, 29.549999237060547, -20.850000381469727, -29.100000381469727, 26627928.0
78273.0, 89104.0, 416.0, -1.2109375, -10.166015625, -1.9580078125, -9.900763511657715, 45.8702278137207, 250.12977600097656, 31.950000762939453, -18.450000762939453, -32.25, 26638672.0
78305.0, 89153.0, 414.0, -2.197265625, -7.2900390625, -1.69921875, -11.679388999938965, 59.96946716308594, 250.12977600097656, 36.599998474121094, -15.899999618530273, -32.099998474121094, 26667968.0
78330.0, 89195.0, 418.0, -3.4716796875, -6.796875, -2.021484375, -25.206106185913086, 65.40457916259766, 250.12977600097656, 36.599998474121094, -15.899999618530273, -32.099998474121094, 26682616.0
78336.0, 89208.0, 407.0, -3.798828125, -7.0751953125, -2.2119140625, -15.938931465148926, 62.34351348876953, 250.12977600097656, 41.099998474121094, -12.600000381469727, -33.29999923706055, 26687500.0
78342.0, 89225.0, 412.0, -4.677734375, -6.6796875, -2.5732421875, -12.175572395324707, 60.725189208984375, 250.12977600097656, 41.099998474121094, -12.600000381469727, -33.29999923706055, 26699218.0
78359.0, 89249.0, 406.0, -4.78515625, -6.650390625, -2.71484375, -14.923664093017578, 62.114505767822266, 250.12977600097656, 41.099998474121094, -12.600000381469727, -33.29999923706055, 26703124.0
78361.0, 89266.0, 410.0, -5.4052734375, -7.0703125, -3.0712890625, -18.39694595336914, 56.90076446533203, 218.5343475341797, 41.849998474121094, -9.149999618530273, -33.0, 26713868.0
78368.0, 89276.0, 408.0, -5.46875, -7.1435546875, -2.978515625, -16.702289581298828, 50.26717758178711, 205.93893432617188, 44.099998474121094, -7.199999809265137, -33.29999923706055, 26718750.0
78372.0, 89280.0, 420.0, -5.9326171875, -7.4072265625, -3.10546875, -10.87022876739502, 46.86259460449219, 182.58778381347656, 43.349998474121094, -5.25, -35.54999923706055, 26728516.0
78383.0, 89309.0, 413.0, -6.5185546875, -7.2216796875, -3.3935546875, -17.923664093017578, 38.946563720703125, 157.7938995361328, 42.45000076293945, -4.800000190734863, -34.20000076293945, 26743164.0
78388.0, 89309.0, 414.0, -6.4892578125, -7.099609375, -3.4375, -13.183206558227539, 40.328243255615234, 150.10687255859375, 42.45000076293945, -4.800000190734863, -34.20000076293945, 26748046.0
78400.0, 89334.0, 411.0, -7.0166015625, -5.68359375, -3.8623046875, -11.877862930297852, 21.076335906982422, 87.57251739501953, 45.599998474121094, -3.0, -34.79999923706055, 26773436.0
78407.0, 89353.0, 409.0, -7.1826171875, -6.298828125, -3.6181640625, -3.824427604675293, 15.938931465148926, 61.57251739501953, 44.400001525878906, -1.7999999523162842, -35.849998474121094, 26788084.0
78410.0, 89359.0, 409.0, -7.1142578125, -6.3232421875, -3.6669921875, -9.61832046508789, 12.32824420928955, 57.274810791015625, 44.400001525878906, -1.7999999523162842, -35.849998474121094, 26792968.0
78420.0, 89365.0, 414.0, -7.3583984375, -6.142578125, -3.5986328125, -8.145038604736328, 10.725191116333008, 49.53435134887695, 44.400001525878906, -1.7999999523162842, -35.849998474121094, 26803710.0
78416.0, 89379.0, 414.0, -7.3193359375, -5.3369140625, -3.515625, 2.1908397674560547, 2.1297709941864014, 27.687023162841797, 46.04999923706055, -2.4000000953674316, -34.20000076293945, 26817382.0
78443.0, 89398.0, 404.0, -7.216796875, -4.8828125, -3.3154296875, 8.496183395385742, 3.534351110458374, -7.732824325561523, 46.04999923706055, -0.44999998807907104, -34.95000076293945, 26833008.0
78454.0, 89411.0, 412.0, -7.1142578125, -4.70703125, -3.4228515625, 6.351145267486572, 0.2671755850315094, -49.58778762817383, 45.900001525878906, -0.75, -34.79999923706055, 26847656.0
78476.0, 89444.0, 404.0, -7.3046875, -3.7646484375, -3.7744140625, 13.244275093078613, -7.068702220916748, -146.29006958007812, 46.650001525878906, -1.7999999523162842, -35.099998474121094, 26868164.0
78476.0, 89451.0, 407.0, -6.8408203125, -4.4189453125, -3.6572265625, 7.450381755828857, -17.45801544189453, -166.87022399902344, 46.650001525878906, -1.7999999523162842, -35.099998474121094, 26873046.0
78484.0, 89462.0, 410.0, -6.748046875, -5.7958984375, -3.6279296875, 10.954198837280273, -22.526718139648438, -185.25953674316406, 45.599998474121094, -4.5, -36.29999923706055, 26878906.0
78492.0, 89476.0, 411.0, -6.6015625, -6.6552734375, -3.4716796875, 23.870229721069336, -29.0992374420166, -192.22900390625, 44.25, -3.5999999046325684, -35.400001525878906, 26882812.0
78500.0, 89495.0, 405.0, -6.1669921875, -7.0361328125, -2.79296875, 20.007633209228516, -31.702289581298828, -212.18321228027344, 44.25, -3.5999999046325684, -35.400001525878906, 26893554.0
78514.0, 89506.0, 415.0, -5.2880859375, -6.2060546875, -2.2607421875, 19.76335906982422, -23.664121627807617, -250.1374053955078, 44.400001525878906, -5.699999809265137, -34.5, 26908204.0
78527.0, 89516.0, 410.0, -5.2197265625, -5.8251953125, -2.392578125, 20.152671813964844, -23.832061767578125, -250.1374053955078, 44.400001525878906, -5.699999809265137, -34.5, 26909180.0
78550.0, 89559.0, 411.0, -4.08203125, -4.8828125, -2.0751953125, 14.007633209228516, -7.541984558105469, -250.1374053955078, 40.79999923706055, -9.149999618530273, -32.54999923706055, 26923828.0
78552.0, 89563.0, 407.0, -3.3984375, -4.6142578125, -2.1240234375, 9.748091697692871, -6.603053569793701, -250.1374053955078, 40.79999923706055, -9.149999618530273, -32.54999923706055, 26927734.0
78577.0, 89621.0, 409.0, 0.283203125, -5.83984375, -2.2607421875, -4.656488418579102, 23.725191116333008, -250.1374053955078, 35.099998474121094, -13.5, -34.95000076293945, 26953124.0
78571.0, 89619.0, 413.0, 2.880859375, -9.5068359375, -2.578125, 10.763359069824219, 32.32061004638672, -250.1374053955078, 32.099998474121094, -15.149999618530273, -35.70000076293945, 26967772.0
78568.0, 89620.0, 410.0, 3.583984375, -11.03515625, -2.79296875, 15.465648651123047, 29.351144790649414, -250.1374053955078, 29.399999618530273, -15.300000190734863, -35.099998474121094, 26973632.0
78544.0, 89583.0, 409.0, 4.3603515625, -13.486328125, -3.2666015625, 53.488548278808594, 14.984732627868652, -250.1374053955078, 29.399999618530273, -15.300000190734863, -35.099998474121094, 26983398.0
78513.0, 89525.0, 405.0, 4.1552734375, -17.451171875, -4.4970703125, 85.61832427978516, -25.229007720947266, -250.1374053955078, 21.75, -17.399999618530273, -34.650001525878906, 26998046.0
78492.0, 89486.0, 402.0, 4.1162109375, -17.8515625, -4.560546875, 82.32061004638672, -28.687023162841797, -250.1374053955078, 21.75, -17.399999618530273, -34.650001525878906, 26999024.0
78441.0, 89400.0, 398.0, 4.04296875, -18.59375, -4.98046875, 73.31298065185547, -65.61068725585938, -250.1374053955078, 17.700000762939453, -17.850000381469727, -32.400001525878906, 27013672.0
78421.0, 89364.0, 413.0, 4.013671875, -16.201171875, -2.958984375, 59.35114669799805, -76.73282623291016, -114.74809265136719, 17.399999618530273, -18.149999618530273, -30.299999237060547, 27027344.0
78422.0, 89355.0, 408.0, 4.130859375, -15.8984375, -2.8466796875, 46.96183395385742, -74.2595443725586, -98.57251739501953, 17.399999618530273, -18.149999618530273, -30.299999237060547, 27029296.0
78434.0, 89354.0, 409.0, 4.208984375, -11.025390625, -0.4296875, 14.320611000061035, -41.450382232666016, 8.885496139526367, 16.5, -19.950000762939453, -29.700000762939453, 27042968.0
78437.0, 89355.0, 405.0, 3.8818359375, -9.9365234375, -0.107421875, -11.145038604736328, -25.770992279052734, 20.290077209472656, 16.5, -19.950000762939453, -29.700000762939453, 27048828.0
78442.0, 89363.0, 411.0, 3.623046875, -8.7548828125, -0.361328125, -26.610687255859375, 3.389312982559204, 15.854962348937988, 17.399999618530273, -20.850000381469727, -29.850000381469727, 27058592.0
78455.0, 89374.0, 410.0, 2.6953125, -9.0576171875, -1.796875, -32.35877990722656, 19.290077209472656, -13.351144790649414, 17.700000762939453, -20.850000381469727, -29.549999237060547, 27073242.0
78439.0, 89337.0, 397.0, 2.6904296875, -10.29296875, -2.587890625, -6.068702220916748, -2.572519063949585, -20.511449813842773, 15.899999618530273, -20.549999237060547, -29.850000381469727, 27093750.0
78437.0, 89326.0, 402.0, 2.744140625, -10.5712890625, -2.314453125, -6.381679534912109, -14.786259651184082, -9.664122581481934, 15.899999618530273, -20.549999237060547, -29.850000381469727, 27102540.0
78441.0, 89331.0, 407.0, 2.705078125, -10.5419921875, -2.3095703125, -9.343511581420898, -11.984732627868652, -10.312976837158203, 15.899999618530273, -20.549999237060547, -29.850000381469727, 27104492.0
78433.0, 89302.0, 407.0, 3.0322265625, -11.19140625, -1.9140625, -9.526717185974121, -15.175572395324707, 27.969465255737305, 15.449999809265137, -19.5, -29.700000762939453, 27118164.0
78434.0, 89304.0, 404.0, 3.3984375, -11.640625, -2.021484375, -8.099236488342285, -11.099236488342285, 43.74809265136719, 16.049999237060547, -22.200000762939453, -28.649999618530273, 27123046.0
78430.0, 89289.0, 399.0, 3.6376953125, -12.2900390625, -2.4462890625, -17.9007625579834, -7.213740348815918, 87.12976837158203, 18.0, -21.899999618530273, -30.149999618530273, 27133788.0
78407.0, 89288.0, 405.0, 3.759765625, -12.880859375, -2.8857421875, -16.74045753479004, -4.870229244232178, 114.5114517211914, 18.0, -21.899999618530273, -30.149999618530273, 27138672.0
78414.0, 89263.0, 408.0, 3.6279296875, -14.658203125, -3.5546875, -8.167939186096191, -8.70992374420166, 185.12213134765625, 18.0, -20.25, -30.75, 27148436.0
78404.0, 89268.0, 398.0, 4.5068359375, -14.7607421875, -2.6171875, -13.0, -14.41984748840332, 250.12977600097656, 18.149999618530273, -20.549999237060547, -31.049999237060547, 27163084.0
78408.0, 89269.0, 402.0, 4.6142578125, -14.4384765625, -2.626953125, -17.190839767456055, -7.526717662811279, 250.12977600097656, 18.149999618530273, -20.549999237060547, -31.049999237060547, 27164062.0
78407.0, 89290.0, 403.0, 3.5986328125, -11.1669921875, -1.298828125, -50.786258697509766, 19.503816604614258, 250.12977600097656, 20.700000762939453, -20.549999237060547, -31.049999237060547, 27178710.0
78418.0, 89294.0, 400.0, 2.8564453125, -10.5810546875, -1.6357421875, -63.25954055786133, 31.137405395507812, 250.12977600097656, 22.350000381469727, -21.450000762939453, -29.399999618530273, 27183592.0
78425.0, 89298.0, 403.0, 1.2060546875, -9.8095703125, -2.8662109375, -60.2442741394043, 33.770992279052734, 250.12977600097656, 23.700000762939453, -19.350000381469727, -32.400001525878906, 27193360.0
78428.0, 89305.0, 401.0, 0.7861328125, -10.3662109375, -3.3935546875, -47.90076446533203, 34.5572509765625, 250.12977600097656, 23.700000762939453, -19.350000381469727, -32.400001525878906, 27198242.0
78431.0, 89310.0, 401.0, -0.263671875, -11.7626953125, -3.779296875, -37.992366790771484, 19.274808883666992, 250.12977600097656, 23.700000762939453, -19.350000381469727, -32.400001525878906, 27208008.0
78435.0, 89313.0, 398.0, -0.1416015625, -12.802734375, -3.642578125, -21.274808883666992, 11.83969497680664, 250.12977600097656, 27.149999618530273, -19.950000762939453, -31.5, 27212890.0
78438.0, 89308.0, 400.0, -0.068359375, -13.3154296875, -2.7099609375, -2.9389312267303467, 6.160305500030518, 250.12977600097656, 27.149999618530273, -19.950000762939453, -31.5, 27223632.0
78440.0, 89317.0, 399.0, 0.4736328125, -9.7021484375, -1.8798828125, -25.572519302368164, 29.18320655822754, 250.12977600097656, 29.399999618530273, -18.0, -34.5, 27237304.0
78440.0, 89319.0, 398.0, 0.458984375, -9.3994140625, -1.884765625, -19.717557907104492, 32.36641311645508, 250.12977600097656, 29.399999618530273, -18.0, -34.5, 27239256.0
78446.0, 89318.0, 409.0, -1.298828125, -6.3427734375, -2.3681640625, -49.389312744140625, 43.54198455810547, 250.12977600097656, 35.400001525878906, -15.149999618530273, -33.599998474121094, 27252928.0
78456.0, 89324.0, 399.0, -2.236328125, -5.8447265625, -2.5244140625, -53.90076446533203, 41.374046325683594, 250.12977600097656, 35.400001525878906, -15.149999618530273, -33.599998474121094, 27258788.0
78444.0, 89314.0, 402.0, -3.61328125, -5.5908203125, -2.7001953125, -39.847328186035156, 40.92366409301758, 250.12977600097656, 37.95000076293945, -12.75, -33.900001525878906, 27268554.0
78434.0, 89310.0, 400.0, -5.1416015625, -4.43359375, -2.8857421875, -31.244274139404297, 28.32061004638672, 250.12977600097656, 40.95000076293945, -9.300000190734863, -36.0, 27283204.0
78435.0, 89301.0, 398.0, -5.0927734375, -4.4140625, -2.939453125, -27.664121627807617, 28.030534744262695, 250.12977600097656, 40.95000076293945, -9.300000190734863, -36.0, 27284180.0
78425.0, 89290.0, 396.0, -6.58203125, -5.29296875, -3.5498046875, -13.114503860473633, 14.832060813903809, 250.12977600097656, 43.20000076293945, -7.800000190734863, -34.650001525878906, 27298828.0
78423.0, 89301.0, 398.0, -6.81640625, -6.3671875, -3.9013671875, -10.366412162780762, -0.11450381577014923, 209.58778381347656, 45.900001525878906, -4.5, -35.54999923706055, 27312500.0
78418.0, 89298.0, 395.0, -6.9287109375, -6.6015625, -3.837890625, -7.717557430267334, -4.961832046508789, 210.343505859375, 45.900001525878906, -4.5, -35.54999923706055, 27314452.0
78407.0, 89281.0, 397.0, -6.9873046875, -5.7666015625, -3.505859375, 2.755725145339966, -12.893129348754883, 175.68702697753906, 46.349998474121094, -4.5, -35.54999923706055, 27328124.0
78405.0, 89277.0, 387.0, -7.1142578125, -5.2978515625, -3.3447265625, 4.969465732574463, -11.900763511657715, 159.7862548828125, 46.349998474121094, 1.0499999523162842, -34.79999923706055, 27333008.0
78398.0, 89278.0, 397.0, -7.1875, -5.3955078125, -3.2470703125, -4.229007720947266, -9.610687255859375, 127.87023162841797, 46.349998474121094, 1.0499999523162842, -34.79999923706055, 27343750.0
78393.0, 89272.0, 390.0, -7.392578125, -5.1220703125, -3.0078125, 2.7328243255615234, -3.1908397674560547, 110.33587646484375, 46.349998474121094, 1.0499999523162842, -34.79999923706055, 27348632.0
78383.0, 89264.0, 399.0, -7.3681640625, -5.5419921875, -3.1103515625, -8.90839672088623, 0.8549618124961853, 89.47328186035156, 49.04999923706055, 0.8999999761581421, -34.650001525878906, 27358398.0
78385.0, 89265.0, 395.0, -7.490234375, -5.576171875, -3.4228515625, -6.053435325622559, 8.374045372009277, 75.84732818603516, 48.150001525878906, 1.5, -34.5, 27373046.0
78386.0, 89275.0, 399.0, -7.6953125, -4.404296875, -3.5205078125, -0.9618320465087891, 6.6946563720703125, 45.93893051147461, 48.45000076293945, 3.0, -34.79999923706055, 27387696.0
78394.0, 89289.0, 400.0, -7.8515625, -4.033203125, -3.1689453125, -8.442748069763184, 10.076335906982422, 8.374045372009277, 47.25, 3.1500000953674316, -35.400001525878906, 27402344.0
78399.0, 89291.0, 395.0, -7.685546875, -4.287109375, -3.33984375, 0.7099236845970154, 10.595419883728027, 3.7633588314056396, 47.25, 3.1500000953674316, -35.400001525878906, 27404296.0
78396.0, 89304.0, 405.0, -7.744140625, -4.6044921875, -3.4228515625, -2.435114622116089, 11.015267372131348, -24.549617767333984, 49.95000076293945, 2.549999952316284, -34.5, 27418944.0
78400.0, 89307.0, 405.0, -7.783203125, -5.0439453125, -3.3203125, 4.526717662811279, 8.473282814025879, -46.41221237182617, 48.29999923706055, 2.4000000953674316, -33.900001525878906, 27432616.0
78403.0, 89311.0, 399.0, -7.67578125, -5.44921875, -3.41796875, 2.2595419883728027, 8.717556953430176, -64.30534362792969, 48.45000076293945, 3.0, -34.79999923706055, 27448242.0
78408.0, 89322.0, 397.0, -7.83203125, -5.2294921875, -3.447265625, -1.5190839767456055, 12.648855209350586, -67.79389190673828, 48.45000076293945, 3.0, -34.79999923706055, 27449218.0
78427.0, 89342.0, 395.0, -7.6025390625, -4.3798828125, -3.4765625, 8.90839672088623, 12.16030502319336, -115.75572204589844, 48.150001525878906, 1.0499999523162842, -34.79999923706055, 27463868.0
78426.0, 89344.0, 392.0, -7.4072265625, -3.935546875, -3.447265625, 11.167939186096191, 13.809160232543945, -146.15267944335938, 46.5, -0.15000000596046448, -34.20000076293945, 27468750.0
78439.0, 89374.0, 397.0, -6.8017578125, -2.1337890625, -3.2177734375, 8.0, 17.755725860595703, -230.3053436279297, 46.5, 0.15000000596046448, -34.95000076293945, 27478516.0
78462.0, 89402.0, 400.0, -5.341796875, 0.2978515625, -2.6953125, 1.229007601737976, 25.664121627807617, -250.1374053955078, 46.650001525878906, -0.75, -35.54999923706055, 27493164.0
78477.0, 89429.0, 399.0, -4.990234375, 0.3515625, -2.568359375, -2.3435113430023193, 31.60305404663086, -250.1374053955078, 46.650001525878906, -0.75, -35.54999923706055, 27494140.0
78498.0, 89450.0, 393.0, -1.4404296875, -0.13671875, -1.171875, -32.96183395385742, 67.36640930175781, -250.1374053955078, 43.650001525878906, -3.0, -35.54999923706055, 27508788.0
78499.0, 89450.0, 388.0, 0.1171875, -1.0986328125, -1.005859375, -57.09923553466797, 90.4427490234375, -250.1374053955078, 43.650001525878906, -3.0, -35.54999923706055, 27513672.0
78493.0, 89451.0, 390.0, 2.861328125, -3.828125, -1.4111328125, -75.12976837158203, 144.58778381347656, -250.1374053955078, 38.54999923706055, -7.949999809265137, -36.599998474121094, 27523436.0
78487.0, 89423.0, 392.0, 4.4873046875, -12.919921875, -4.3310546875, -8.175572395324707, 164.18321228027344, -250.1374053955078, 29.850000381469727, -12.449999809265137, -38.54999923706055, 27538084.0
78459.0, 89369.0, 396.0, 4.74609375, -20.0, -8.6572265625, 165.5572509765625, 59.610687255859375, -250.1374053955078, 24.899999618530273, -11.399999618530273, -40.20000076293945, 27552734.0
78355.0, 89175.0, 394.0, 4.5654296875, -20.0, -10.7861328125, 237.96946716308594, -121.20610809326172, -250.1374053955078, 18.149999618530273, -14.399999618530273, -36.45000076293945, 27567382.0
78311.0, 89096.0, 388.0, 4.6484375, -20.0, -10.126953125, 229.70993041992188, -132.04580688476562, -250.1374053955078, 18.149999618530273, -14.399999618530273, -36.45000076293945, 27569336.0
78239.0, 88980.0, 395.0, 5.4443359375, -15.302734375, -1.572265625, 111.38931274414062, -147.49618530273438, -96.22901153564453, 16.5, -17.25, -35.54999923706055, 27583008.0
78233.0, 88964.0, 390.0, 5.0439453125, -11.435546875, 0.8154296875, 54.328243255615234, -120.56488800048828, -54.328243255615234, 15.75, -19.950000762939453, -34.04999923706055, 27588868.0
78213.0, 88967.0, 394.0, 3.65234375, -7.5537109375, 1.9189453125, -35.625953674316406, -37.61832046508789, -44.74045944213867, 18.299999237060547, -20.25, -33.0, 27598632.0
78214.0, 88960.0, 393.0, 1.630859375, -8.857421875, -2.98828125, -55.69465637207031, 27.02290153503418, -81.03053283691406, 18.299999237060547, -20.25, -33.0, 27612304.0
78205.0, 88955.0, 400.0, 1.6455078125, -9.23828125, -3.3056640625, -56.52671813964844, 28.16030502319336, -82.97709655761719, 18.299999237060547, -20.25, -33.0, 27614256.0
78193.0, 88937.0, 402.0, 1.455078125, -10.8056640625, -5.751953125, 6.053435325622559, -17.60305404663086, -76.19084167480469, 18.0, -21.0, -33.0, 27627928.0
78189.0, 88931.0, 397.0, 1.845703125, -10.5078125, -5.09765625, 16.854961395263672, -31.64122200012207, -74.38168334960938, 18.0, -21.0, -33.0, 27633788.0
78178.0, 88922.0, 396.0, 2.08984375, -9.169921875, -2.75390625, 38.6870231628418, -47.66412353515625, -67.885498046875, 15.899999618530273, -20.549999237060547, -33.900001525878906, 27643554.0
78173.0, 88915.0, 401.0, 2.5732421875, -9.1650390625, -1.26953125, 32.1297721862793, -29.465648651123047, -73.0, 18.450000762939453, -22.350000381469727, -33.900001525878906, 27658204.0
78158.0, 88898.0, 397.0, 3.1103515625, -10.5224609375, -2.20703125, 19.648855209350586, -9.854961395263672, -56.725189208984375, 16.049999237060547, -21.450000762939453, -32.54999923706055, 27672852.0
78142.0, 88889.0, 402.0, 3.1201171875, -10.6591796875, -2.3876953125, 7.816793918609619, -3.923664093017578, -56.25954055786133, 16.049999237060547, -21.450000762939453, -32.54999923706055, 27674804.0
78148.0, 88863.0, 394.0, 3.30078125, -10.810546875, -2.94921875, 12.167939186096191, -6.748091697692871, -26.893129348754883, 17.25, -23.399999618530273, -32.54999923706055, 27688476.0
78141.0, 88861.0, 399.0, 3.4619140625, -10.849609375, -2.666015625, 11.32824420928955, -7.931297779083252, -1.4580153226852417, 17.399999618530273, -22.350000381469727, -29.850000381469727, 27703124.0
78143.0, 88859.0, 396.0, 3.4130859375, -10.7275390625, -2.763671875, 2.2671756744384766, -7.244274616241455, 0.8244274854660034, 17.399999618530273, -22.350000381469727, -29.850000381469727, 27704100.0
78144.0, 88867.0, 397.0, 3.3349609375, -10.625, -2.63671875, -1.9465649127960205, -1.572519063949585, 33.229007720947266, 16.350000381469727, -24.0, -31.649999618530273, 27718750.0
78160.0, 88877.0, 392.0, 3.330078125, -10.6884765625, -2.763671875, -2.885496139526367, 0.9541984796524048, 43.885498046875, 16.350000381469727, -24.0, -31.649999618530273, 27723632.0
78161.0, 88880.0, 394.0, 2.8173828125, -11.044921875, -2.9345703125, 9.938931465148926, 3.748091697692871, 72.3282470703125, 16.350000381469727, -24.0, -31.649999618530273, 27733398.0
78180.0, 88896.0, 399.0, 2.67578125, -10.703125, -2.5634765625, 6.007633686065674, 3.572519063949585, 110.2977066040039, 16.5, -23.700000762939453, -30.75, 27748046.0
78191.0, 88913.0, 398.0, 2.7294921875, -10.6640625, -2.6611328125, 7.404580116271973, 1.7786259651184082, 114.99236297607422, 16.5, -23.700000762939453, -30.75, 27749024.0
78214.0, 88954.0, 390.0, 2.6025390625, -10.517578125, -3.02734375, 0.37404578924179077, 7.0916032791137695, 136.656494140625, 17.399999618530273, -22.350000381469727, -31.049999237060547, 27763672.0
78234.0, 88984.0, 392.0, 2.470703125, -11.611328125, -3.0712890625, -1.305343508720398, 1.9160305261611938, 164.71755981445312, 18.450000762939453, -24.0, -32.099998474121094, 27778320.0
78281.0, 89053.0, 389.0, 2.8466796875, -11.7529296875, -2.890625, -1.496183156967163, -0.694656491279602, 199.60305786132812, 19.950000762939453, -22.350000381469727, -30.600000381469727, 27792968.0
78303.0, 89099.0, 394.0, 2.05078125, -12.2265625, -2.7490234375, -18.58015251159668, 11.70992374420166, 239.64122009277344, 21.75, -22.799999237060547, -30.600000381469727, 27807616.0
78330.0, 89153.0, 390.0, 1.5234375, -12.7734375, -3.0029296875, -17.190839767456055, 14.664122581481934, 250.12977600097656, 22.5, -22.350000381469727, -32.099998474121094, 27822264.0
78339.0, 89171.0, 396.0, 1.494140625, -12.6220703125, -2.8564453125, -20.97709846496582, 16.114503860473633, 250.12977600097656, 22.350000381469727, -21.0, -31.200000762939453, 27824218.0
78354.0, 89192.0, 395.0, 0.56640625, -12.1484375, -3.1787109375, -11.625954627990723, 16.267175674438477, 250.12977600097656, 25.649999618530273, -22.649999618530273, -32.25, 27837890.0
78360.0, 89194.0, 385.0, 0.4296875, -11.8212890625, -3.095703125, -14.366412162780762, 13.587786674499512, 250.12977600097656, 25.649999618530273, -22.649999618530273, -32.25, 27843750.0
78367.0, 89219.0, 388.0, -0.498046875, -10.732421875, -3.0322265625, -8.4503812789917, 7.312977313995361, 250.12977600097656, 27.450000762939453, -20.700000762939453, -33.29999923706055, 27853516.0
78376.0, 89230.0, 385.0, -1.1767578125, -9.189453125, -2.509765625, -4.72519063949585, 8.167939186096191, 250.12977600097656, 27.450000762939453, -20.700000762939453, -33.29999923706055, 27868164.0
78375.0, 89236.0, 386.0, -1.11328125, -8.88671875, -2.509765625, -0.07633587718009949, 10.412213325500488, 250.12977600097656, 27.450000762939453, -20.700000762939453, -33.29999923706055, 27869140.0
78403.0, 89254.0, 386.0, -1.89453125, -7.8369140625, -2.1826171875, -12.656488418579102, 21.4427490234375, 250.12977600097656, 32.849998474121094, -18.149999618530273, -33.599998474121094, 27883788.0
78397.0, 89247.0, 384.0, -2.2509765625, -7.607421875, -2.470703125, -17.045801162719727, 29.152671813964844, 250.12977600097656, 32.849998474121094, -18.149999618530273, -33.599998474121094, 27888672.0
78399.0, 89260.0, 391.0, -3.1005859375, -7.4169921875, -2.8857421875, -20.687023162841797, 31.40458106994629, 250.12977600097656, 35.54999923706055, -15.75, -33.75, 27898436.0
78393.0, 89257.0, 394.0, -4.1943359375, -8.388671875, -3.4521484375, -18.908397674560547, 29.48091697692871, 250.12977600097656, 36.900001525878906, -15.149999618530273, -34.20000076293945, 27913084.0
78394.0, 89252.0, 387.0, -4.1943359375, -8.427734375, -3.2958984375, -16.083969116210938, 25.870229721069336, 250.12977600097656, 36.900001525878906, -15.149999618530273, -34.20000076293945, 27914062.0
78386.0, 89267.0, 398.0, -4.267578125, -8.5888671875, -3.3056640625, -8.167939186096191, 18.76335906982422, 250.12977600097656, 39.29999923706055, -12.300000190734863, -34.79999923706055, 27928710.0
78385.0, 89253.0, 398.0, -4.7265625, -8.623046875, -3.154296875, -4.045801639556885, 11.343511581420898, 250.12977600097656, 41.54999923706055, -10.649999618530273, -33.0, 27933592.0
78384.0, 89246.0, 395.0, -5.380859375, -8.9306640625, -3.2861328125, -9.412213325500488, 9.427480697631836, 250.12977600097656, 41.54999923706055, -9.600000381469727, -34.79999923706055, 27943360.0
78380.0, 89246.0, 392.0, -5.95703125, -7.119140625, -3.876953125, 1.198473334312439, 1.7022900581359863, 240.6717529296875, 43.650001525878906, -8.699999809265137, -35.54999923706055, 27958008.0
78361.0, 89243.0, 395.0, -6.5771484375, -5.7421875, -3.88671875, 8.0, -14.389312744140625, 190.75572204589844, 44.70000076293945, -5.849999904632568, -34.650001525878906, 27972656.0
78356.0, 89233.0, 392.0, -6.689453125, -5.810546875, -3.8720703125, 14.0, -15.816794395446777, 191.39694213867188, 44.70000076293945, -5.849999904632568, -34.650001525878906, 27974608.0
78339.0, 89217.0, 398.0, -6.572265625, -5.83984375, -3.2861328125, 8.358778953552246, -24.709924697875977, 151.29771423339844, 46.349998474121094, -3.75, -33.75, 27988280.0
78322.0, 89202.0, 396.0, -6.7919921875, -5.41015625, -2.9638671875, 5.72519063949585, -22.786258697509766, 123.75572204589844, 48.0, -3.1500000953674316, -32.849998474121094, 28002928.0
78309.0, 89198.0, 394.0, -7.20703125, -5.2001953125, -2.7685546875, 0.0, -10.67175579071045, 90.21373748779297, 48.75, -0.8999999761581421, -32.849998474121094, 28017578.0
78295.0, 89196.0, 394.0, -7.4365234375, -5.60546875, -2.5439453125, 5.977099418640137, -6.557251930236816, 62.04580307006836, 48.900001525878906, -0.75, -34.04999923706055, 28033204.0
78292.0, 89204.0, 393.0, -7.8369140625, -5.6396484375, -2.6025390625, 1.961832046508789, -1.229007601737976, 39.74045944213867, 49.349998474121094, -0.15000000596046448, -32.099998474121094, 28047852.0
78308.0, 89216.0, 398.0, -7.8076171875, -5.009765625, -2.841796875, 4.8015265464782715, 4.358778476715088, 9.106870651245117, 48.900001525878906, -0.30000001192092896, -32.54999923706055, 28062500.0
78311.0, 89227.0, 399.0, -7.900390625, -4.892578125, -2.8369140625, 0.20610687136650085, 4.068702220916748, 7.755725383758545, 48.900001525878906, -0.30000001192092896, -32.54999923706055, 28064452.0
78316.0, 89238.0, 399.0, -7.9296875, -4.9072265625, -2.880859375, 3.5190839767456055, 3.961832046508789, -30.290077209472656, 48.45000076293945, 0.75, -31.200000762939453, 28078124.0
78320.0, 89247.0, 395.0, -7.8076171875, -4.970703125, -2.8271484375, 3.8091602325439453, 4.908397197723389, -33.725189208984375, 48.45000076293945, 0.75, -31.200000762939453, 28080078.0
78327.0, 89259.0, 400.0, -7.802734375, -4.7314453125, -3.14453125, 13.67175579071045, 0.6106870174407959, -65.09923553466797, 49.349998474121094, -0.44999998807907104, -31.350000381469727, 28093750.0
78331.0, 89261.0, 400.0, -7.7490234375, -4.8828125, -3.0322265625, 4.954198360443115, -0.694656491279602, -67.21373748779297, 49.349998474121094, -0.44999998807907104, -31.350000381469727, 28094726.0
78333.0, 89273.0, 401.0, -7.529296875, -4.1357421875, -3.10546875, 22.717557907104492, -13.335878372192383, -121.64122009277344, 49.79999923706055, -0.8999999761581421, -31.649999618530273, 28108398.0
78343.0, 89296.0, 404.0, -6.767578125, -1.103515625, -2.6806640625, 25.503816604614258, -13.778626441955566, -246.32061767578125, 49.95000076293945, -2.549999952316284, -30.149999618530273, 28123046.0
78352.0, 89311.0, 411.0, -6.6455078125, -0.6787109375, -2.65625, 30.068702697753906, -17.832061767578125, -250.1374053955078, 49.95000076293945, -2.549999952316284, -30.149999618530273, 28124024.0
78380.0, 89345.0, 406.0, -3.876953125, 1.8310546875, -1.4794921875, 8.251908302307129, -1.3435114622116089, -250.1374053955078, 48.29999923706055, -3.5999999046325684, -31.649999618530273, 28138672.0
78398.0, 89376.0, 391.0, 0.166015625, 0.91796875, -0.556640625, -24.374046325683594, 46.58015441894531, -250.1374053955078, 48.0, -6.599999904632568, -30.600000381469727, 28153320.0
78425.0, 89404.0, 406.0, 4.6435546875, -5.107421875, -1.494140625, -31.083969116210938, 97.6030502319336, -250.1374053955078, 41.099998474121094, -12.600000381469727, -32.25, 28167968.0
78431.0, 89421.0, 403.0, 4.6337890625, -5.91796875, -1.533203125, -29.67938995361328, 104.09160614013672, -250.1374053955078, 37.5, -16.049999237060547, -31.950000762939453, 28168944.0
78422.0, 89411.0, 402.0, 6.923828125, -13.662109375, -3.5205078125, 74.24427795410156, 80.23664093017578, -250.1374053955078, 31.200000762939453, -19.200000762939453, -34.04999923706055, 28183592.0
78362.0, 89289.0, 395.0, 5.29296875, -20.0, -8.6474609375, 202.54962158203125, -37.74809265136719, -250.1374053955078, 24.899999618530273, -19.200000762939453, -33.75, 28197264.0
78311.0, 89200.0, 400.0, 5.2197265625, -20.0, -9.0869140625, 214.0992431640625, -55.832061767578125, -250.1374053955078, 24.899999618530273, -19.200000762939453, -33.75, 28199218.0
78224.0, 89026.0, 399.0, 6.3134765625, -20.0, -7.91015625, 188.32061767578125, -167.1908416748047, -250.1374053955078, 16.350000381469727, -23.25, -32.099998474121094, 28212890.0
78187.0, 88975.0, 401.0, 6.2353515625, -20.0, -7.1142578125, 186.25953674316406, -175.06106567382812, -250.1374053955078, 16.350000381469727, -23.25, -32.099998474121094, 28214844.0
78161.0, 88935.0, 407.0, 5.7568359375, -14.9560546875, 0.95703125, 121.57251739501953, -153.85496520996094, -39.47328186035156, 15.899999618530273, -27.0, -31.350000381469727, 28228516.0
78175.0, 88959.0, 400.0, 4.7412109375, -5.76171875, 4.6337890625, -27.12213706970215, -24.58015251159668, -28.40458106994629, 16.5, -26.399999618530273, -28.200000762939453, 28243164.0
78183.0, 88957.0, 403.0, 4.677734375, -5.33203125, 4.365234375, -32.770992279052734, -12.885496139526367, -35.22137451171875, 16.5, -26.399999618530273, -28.200000762939453, 28244140.0
78175.0, 88947.0, 402.0, 2.060546875, -9.12109375, -2.744140625, -61.2442741394043, 46.90076446533203, -112.25190734863281, 16.350000381469727, -27.450000762939453, -27.0, 28258788.0
78147.0, 88890.0, 399.0, 2.1044921875, -12.20703125, -5.126953125, 28.54198455810547, -26.83969497680664, -83.6717529296875, 16.350000381469727, -27.450000762939453, -27.0, 28273436.0
78129.0, 88867.0, 400.0, 3.0712890625, -9.1015625, -0.1171875, 37.69465637207031, -54.893131256103516, -40.60305404663086, 15.449999809265137, -27.600000381469727, -27.149999618530273, 28288084.0
78126.0, 88861.0, 400.0, 2.919921875, -8.7890625, 0.3857421875, 26.496183395385742, -49.35877990722656, -38.41221237182617, 15.449999809265137, -27.600000381469727, -27.149999618530273, 28289062.0
78127.0, 88865.0, 404.0, 3.3251953125, -9.0087890625, 0.5615234375, -19.503816604614258, -4.72519063949585, -50.09160232543945, 14.25, -26.850000381469727, -26.399999618530273, 28303710.0
78121.0, 88868.0, 407.0, 3.3447265625, -9.0869140625, 0.4296875, -20.709922790527344, -4.473282337188721, -48.595420837402344, 14.25, -26.850000381469727, -26.399999618530273, 28304688.0
78124.0, 88856.0, 403.0, 4.0185546875, -11.15234375, -2.041015625, -18.374046325683594, 8.343511581420898, -34.90076446533203, 14.100000381469727, -27.75, -27.0, 28318360.0
78126.0, 88856.0, 403.0, 4.697265625, -10.6982421875, -1.9775390625, -19.503816604614258, -1.1374045610427856, -5.015267372131348, 14.850000381469727, -27.75, -27.75, 28332032.0
78129.0, 88868.0, 404.0, 4.658203125, -9.9658203125, -1.611328125, -14.274808883666992, 2.3435113430023193, 6.083969593048096, 13.5, -27.600000381469727, -26.399999618530273, 28347656.0
78131.0, 88870.0, 392.0, 4.228515625, -9.990234375, -2.3046875, -19.77862548828125, 2.8320610523223877, -0.5190839767456055, 13.199999809265137, -28.049999237060547, -28.200000762939453, 28362304.0
78137.0, 88866.0, 405.0, 4.189453125, -9.873046875, -2.431640625, -18.9007625579834, 0.5114504098892212, 2.9389312267303467, 13.199999809265137, -28.049999237060547, -28.200000762939453, 28364256.0
78123.0, 88861.0, 399.0, 3.5009765625, -9.5458984375, -2.0556640625, -16.969465255737305, 0.7938931584358215, 14.5496187210083, 13.949999809265137, -27.600000381469727, -27.899999618530273, 28393554.0
78130.0, 88860.0, 398.0, 3.5595703125, -9.78515625, -2.3388671875, -11.961832046508789, 3.0458016395568848, 13.916030883789062, 15.0, -26.100000381469727, -27.149999618530273, 28408204.0
78139.0, 88866.0, 405.0, 4.1748046875, -10.95703125, -2.8076171875, -5.717557430267334, -3.4045801162719727, 46.57251739501953, 15.149999618530273, -28.5, -28.5, 28422852.0
78136.0, 88873.0, 400.0, 4.189453125, -11.4794921875, -2.4560546875, 14.389312744140625, -3.4427480697631836, 93.16030883789062, 14.25, -28.049999237060547, -26.850000381469727, 28437500.0
78145.0, 88886.0, 402.0, 4.1455078125, -11.4892578125, -2.568359375, 8.206107139587402, -1.3740458488464355, 98.22901153564453, 14.25, -28.049999237060547, -26.850000381469727, 28439452.0
78150.0, 88887.0, 399.0, 3.5595703125, -11.9921875, -2.421875, 9.893129348754883, 2.1908397674560547, 160.2366485595703, 16.350000381469727, -27.75, -26.700000762939453, 28453124.0
78154.0, 88896.0, 399.0, 3.59375, -12.314453125, -2.392578125, 14.389312744140625, 4.2366414070129395, 166.1374053955078, 16.350000381469727, -27.75, -26.700000762939453, 28455078.0
78179.0, 88936.0, 405.0, 2.802734375, -13.6083984375, -1.015625, 3.992366313934326, 8.16030502319336, 249.93893432617188, 18.149999618530273, -26.25, -27.0, 28468750.0
78189.0, 88963.0, 401.0, 2.890625, -13.84765625, -1.0302734375, 4.3740458488464355, 9.022900581359863, 250.12977600097656, 18.149999618530273, -26.25, -27.0, 28469726.0
78237.0, 89061.0, 404.0, 3.6376953125, -11.6845703125, -1.396484375, -39.06106948852539, 18.03816795349121, 250.12977600097656, 18.0, -26.850000381469727, -26.850000381469727, 28483398.0
78298.0, 89155.0, 399.0, 2.32421875, -11.09375, -1.3525390625, -35.46564865112305, 22.587785720825195, 250.12977600097656, 22.350000381469727, -26.850000381469727, -26.399999618530273, 28498046.0
78304.0, 89170.0, 403.0, 2.2119140625, -10.95703125, -1.4599609375, -41.6870231628418, 24.007633209228516, 250.12977600097656, 22.350000381469727, -26.850000381469727, -26.399999618530273, 28499024.0
78337.0, 89218.0, 406.0, 1.15234375, -11.73828125, -1.9140625, -26.38167953491211, 24.61832046508789, 250.12977600097656, 22.350000381469727, -26.850000381469727, -26.399999618530273, 28513672.0
78333.0, 89229.0, 399.0, 0.9423828125, -11.806640625, -2.01171875, -30.40458106994629, 25.770992279052734, 250.12977600097656, 22.350000381469727, -26.850000381469727, -26.399999618530273, 28514648.0
78344.0, 89258.0, 408.0, -0.0927734375, -10.8837890625, -2.607421875, -9.41984748840332, 13.526717185974121, 250.12977600097656, 26.399999618530273, -24.149999618530273, -30.149999618530273, 28528320.0
78346.0, 89255.0, 402.0, -0.8154296875, -11.455078125, -2.861328125, -8.946564674377441, 9.374045372009277, 250.12977600097656, 26.399999618530273, -24.149999618530273, -30.149999618530273, 28534180.0
78342.0, 89259.0, 400.0, -0.205078125, -12.060546875, -2.5341796875, 2.893129825592041, 0.6259542107582092, 250.12977600097656, 29.25, -22.350000381469727, -29.100000381469727, 28542968.0
78333.0, 89261.0, 408.0, -0.224609375, -11.953125, -2.5927734375, -0.28244274854660034, 0.2442748099565506, 250.12977600097656, 30.299999237060547, -24.299999237060547, -29.549999237060547, 28544920.0
78333.0, 89244.0, 396.0, -0.5419921875, -10.4248046875, -1.8212890625, 10.473282814025879, 2.1679389476776123, 250.12977600097656, 30.299999237060547, -24.299999237060547, -29.549999237060547, 28558592.0
78317.0, 89234.0, 400.0, -1.25, -10.029296875, -1.4453125, -9.916030883789062, 23.61832046508789, 250.12977600097656, 34.650001525878906, -21.600000381469727, -29.100000381469727, 28572264.0
78312.0, 89229.0, 401.0, -1.357421875, -10.2099609375, -1.3916015625, -5.740458011627197, 21.9007625579834, 250.12977600097656, 36.29999923706055, -20.25, -30.450000762939453, 28574218.0
78302.0, 89217.0, 402.0, -2.451171875, -8.935546875, -1.767578125, -24.648855209350586, 40.30534362792969, 250.12977600097656, 40.79999923706055, -19.950000762939453, -30.149999618530273, 28587890.0
78292.0, 89210.0, 398.0, -2.421875, -8.9453125, -1.81640625, -19.450382232666016, 41.1984748840332, 250.12977600097656, 40.79999923706055, -19.950000762939453, -30.149999618530273, 28589844.0
78285.0, 89202.0, 403.0, -3.1640625, -6.62109375, -2.109375, -20.64122200012207, 46.1297721862793, 250.12977600097656, 41.099998474121094, -17.25, -28.950000762939453, 28603516.0
78275.0, 89199.0, 411.0, -4.8193359375, -4.7119140625, -2.3388671875, -6.312977313995361, 38.51908493041992, 250.12977600097656, 44.400001525878906, -11.399999618530273, -29.399999618530273, 28618164.0
78268.0, 89195.0, 404.0, -5.1220703125, -4.4482421875, -2.2998046875, -11.67175579071045, 40.709922790527344, 250.12977600097656, 44.400001525878906, -11.399999618530273, -29.399999618530273, 28619140.0
78274.0, 89207.0, 400.0, -5.9716796875, -5.4248046875, -2.529296875, -1.3282443284988403, 34.4427490234375, 243.31297302246094, 47.25, -8.550000190734863, -29.399999618530273, 28633788.0
78294.0, 89232.0, 405.0, -6.6650390625, -5.76171875, -2.7294921875, -5.213740348815918, 28.6564884185791, 182.5572509765625, 48.0, -5.849999904632568, -32.099998474121094, 28647460.0
78313.0, 89245.0, 404.0, -6.6162109375, -5.80078125, -2.509765625, -0.09923664480447769, 27.809160232543945, 181.04580688476562, 48.0, -5.849999904632568, -32.099998474121094, 28649414.0
78331.0, 89269.0, 397.0, -7.0849609375, -5.9521484375, -3.0126953125, 1.7862595319747925, 21.48091697692871, 134.68702697753906, 48.45000076293945, -4.949999809265137, -32.25, 28663084.0
78343.0, 89272.0, 405.0, -7.1337890625, -5.9912109375, -2.9150390625, -4.259541988372803, 21.534351348876953, 133.61831665039062, 48.45000076293945, -4.949999809265137, -32.25, 28665040.0
78366.0, 89310.0, 409.0, -7.5, -5.947265625, -3.3154296875, -0.9312977194786072, 19.908397674560547, 71.79389190673828, 50.099998474121094, -1.2000000476837158, -29.850000381469727, 28693360.0
78386.0, 89346.0, 411.0, -7.6416015625, -4.951171875, -3.193359375, -5.992366313934326, 12.519083976745605, 38.96946716308594, 49.95000076293945, -1.7999999523162842, -31.950000762939453, 28708008.0
78393.0, 89353.0, 408.0, -7.3681640625, -4.8779296875, -3.232421875, -3.7022900581359863, 15.236640930175781, 29.74045753479004, 49.95000076293945, -1.7999999523162842, -31.950000762939453, 28708984.0
78406.0, 89370.0, 410.0, -7.5634765625, -4.365234375, -3.349609375, -7.4809160232543945, 7.251908302307129, -17.74045753479004, 49.349998474121094, -1.2000000476837158, -31.350000381469727, 28723632.0
78410.0, 89373.0, 403.0, -7.685546875, -4.541015625, -3.310546875, -10.954198837280273, 7.351145267486572, -22.809160232543945, 49.349998474121094, -1.2000000476837158, -31.350000381469727, 28724608.0
78420.0, 89399.0, 408.0, -7.490234375, -5.8447265625, -2.83203125, 4.427480697631836, 3.0916030406951904, -47.09923553466797, 50.099998474121094, -0.15000000596046448, -32.400001525878906, 28738280.0
78437.0, 89416.0, 411.0, -7.48046875, -6.1181640625, -2.7099609375, 3.221374034881592, 7.641221523284912, -68.54198455810547, 49.20000076293945, -1.7999999523162842, -32.25, 28752928.0
78456.0, 89442.0, 406.0, -7.2412109375, -5.05859375, -2.6708984375, 2.2748091220855713, 3.7251908779144287, -102.3969497680664, 49.20000076293945, -0.75, -31.950000762939453, 28768554.0
78512.0, 89528.0, 408.0, -5.48828125, -1.73828125, -2.060546875, 4.526717662811279, 4.664122104644775, -250.1374053955078, 47.70000076293945, -1.5, -31.200000762939453, 28797852.0
78551.0, 89585.0, 403.0, -3.115234375, -1.5771484375, -1.220703125, -19.60305404663086, 20.885496139526367, -250.1374053955078, 45.599998474121094, -7.949999809265137, -33.0, 28812500.0
78574.0, 89630.0, 407.0, 0.185546875, -3.564453125, -0.9814453125, -42.893131256103516, 58.992366790771484, -250.1374053955078, 42.45000076293945, -12.0, -32.400001525878906, 28828124.0
78577.0, 89646.0, 413.0, 0.263671875, -4.033203125, -0.9521484375, -45.36641311645508, 64.98473358154297, -250.1374053955078, 42.45000076293945, -12.0, -32.400001525878906, 28829100.0
78577.0, 89647.0, 409.0, 2.4658203125, -8.8671875, -1.8798828125, -20.54198455810547, 90.3969497680664, -250.1374053955078, 39.29999923706055, -13.350000381469727, -34.5, 28843750.0
78569.0, 89640.0, 412.0, 2.6416015625, -9.521484375, -2.265625, -6.961832046508789, 88.35114288330078, -250.1374053955078, 39.29999923706055, -13.350000381469727, -34.5, 28844726.0
78543.0, 89602.0, 410.0, 4.560546875, -15.576171875, -3.9697265625, 73.24427795410156, 57.74045944213867, -250.1374053955078, 30.899999618530273, -16.5, -35.099998474121094, 28858398.0
78475.0, 89485.0, 413.0, 4.4873046875, -20.0, -6.73828125, 126.57251739501953, -28.54198455810547, -250.1374053955078, 22.049999237060547, -19.5, -35.54999923706055, 28873046.0
78437.0, 89423.0, 404.0, 4.4677734375, -20.0, -6.943359375, 116.32061004638672, -34.450382232666016, -250.1374053955078, 22.049999237060547, -19.5, -35.54999923706055, 28874024.0
78383.0, 89327.0, 406.0, 3.9453125, -20.0, -6.8896484375, 94.03816986083984, -113.14503479003906, -250.1374053955078, 18.75, -21.0, -34.79999923706055, 28888672.0
78359.0, 89294.0, 408.0, 4.0478515625, -19.833984375, -6.34765625, 87.3740463256836, -112.72518920898438, -250.1374053955078, 18.75, -21.0, -34.79999923706055, 28889648.0
78344.0, 89283.0, 405.0, 3.0859375, -13.5791015625, -2.08984375, 61.786258697509766, -121.32061004638672, -83.31298065185547, 17.100000381469727, -24.0, -31.649999618530273, 28903320.0
78389.0, 89316.0, 408.0, 2.578125, -7.12890625, 0.6103515625, -2.4427480697631836, -57.77862548828125, -59.70228958129883, 17.100000381469727, -24.0, -31.649999618530273, 28916992.0
78406.0, 89351.0, 408.0, 1.845703125, -7.4267578125, -0.5859375, -33.98473358154297, 7.045801639556885, -118.50381469726562, 17.549999237060547, -22.950000762939453, -29.399999618530273, 28932616.0
78407.0, 89337.0, 405.0, 2.3876953125, -10.654296875, -3.193359375, -22.923664093017578, 17.06106948852539, -128.35877990722656, 16.799999237060547, -21.450000762939453, -30.450000762939453, 28947264.0
78405.0, 89327.0, 407.0, 2.5146484375, -10.9033203125, -3.5693359375, -25.793893814086914, 16.40458106994629, -131.58778381347656, 16.799999237060547, -21.450000762939453, -30.450000762939453, 28949218.0
78388.0, 89310.0, 404.0, 3.7890625, -12.294921875, -3.5986328125, 23.145038604736328, -17.274808883666992, -85.2595443725586, 16.799999237060547, -24.600000381469727, -29.399999618530273, 28962890.0
78384.0, 89295.0, 399.0, 3.96484375, -12.294921875, -3.5009765625, 19.76335906982422, -18.9007625579834, -83.65648651123047, 16.799999237060547, -24.600000381469727, -29.399999618530273, 28964844.0
78366.0, 89260.0, 390.0, 4.78515625, -10.390625, -1.6552734375, -3.244274854660034, -3.7251908779144287, -15.770992279052734, 16.049999237060547, -23.700000762939453, -26.850000381469727, 28993164.0
78362.0, 89255.0, 401.0, 4.130859375, -10.37109375, -2.2412109375, -21.77862548828125, 0.8320610523223877, 0.4885496199131012, 16.049999237060547, -23.700000762939453, -28.649999618530273, 29007812.0
78361.0, 89248.0, 405.0, 3.49609375, -10.048828125, -2.7197265625, -21.80152702331543, 5.297709941864014, 16.06106948852539, 15.600000381469727, -24.75, -28.5, 29022460.0
78362.0, 89250.0, 397.0, 3.310546875, -9.8876953125, -2.55859375, -26.152671813964844, 1.1526718139648438, 18.832061767578125, 15.600000381469727, -24.75, -28.5, 29024414.0
78369.0, 89247.0, 400.0, 2.8271484375, -9.8486328125, -2.509765625, -13.557251930236816, -0.07633587718009949, 27.32061004638672, 15.600000381469727, -24.75, -28.5, 29039062.0
78366.0, 89241.0, 395.0, 2.822265625, -9.8828125, -2.2998046875, -7.541984558105469, -0.38167938590049744, 30.32061004638672, 16.049999237060547, -24.600000381469727, -27.899999618530273, 29040040.0
78358.0, 89240.0, 396.0, 3.0419921875, -11.0546875, -2.9150390625, 5.152671813964844, -4.557251930236816, 57.007633209228516, 15.75, -23.399999618530273, -29.399999618530273, 29053710.0
78358.0, 89238.0, 394.0, 2.919921875, -10.8935546875, -2.880859375, 4.748091697692871, 0.6717557311058044, 57.93893051147461, 15.75, -23.399999618530273, -29.399999618530273, 29054688.0
78354.0, 89229.0, 395.0, 3.1640625, -11.9970703125, -3.1396484375, 15.190839767456055, -12.045801162719727, 111.77862548828125, 15.899999618530273, -23.25, -28.799999237060547, 29068360.0
78348.0, 89224.0, 398.0, 3.49609375, -14.384765625, -2.5, 25.251909255981445, -13.687023162841797, 209.73281860351562, 16.799999237060547, -24.600000381469727, -27.600000381469727, 29083008.0
78348.0, 89219.0, 395.0, 3.701171875, -14.3896484375, -2.421875, 22.427480697631836, -16.351144790649414, 224.37405395507812, 16.799999237060547, -24.600000381469727, -27.600000381469727, 29083984.0
78356.0, 89253.0, 392.0, 4.6044921875, -12.3828125, -1.6943359375, -11.90839672088623, -1.5190839767456055, 250.12977600097656, 20.700000762939453, -24.299999237060547, -28.5, 29098632.0
78365.0, 89251.0, 394.0, 4.5458984375, -12.2021484375, -1.533203125, -19.6564884185791, -0.12977099418640137, 250.12977600097656, 20.700000762939453, -24.299999237060547, -28.5, 29099608.0
78362.0, 89268.0, 396.0, 2.841796875, -11.4794921875, -1.5625, -34.06106948852539, 19.916030883789062, 250.12977600097656, 20.850000381469727, -23.700000762939453, -29.700000762939453, 29113280.0
78378.0, 89277.0, 394.0, 1.7138671875, -10.64453125, -1.97265625, -36.61832046508789, 39.274810791015625, 250.12977600097656, 21.75, -22.049999237060547, -31.049999237060547, 29127928.0
78378.0, 89283.0, 407.0, 0.2490234375, -9.6826171875, -2.94921875, -32.786258697509766, 34.41984558105469, 250.12977600097656, 25.350000381469727, -22.950000762939453, -31.5, 29142578.0
78392.0, 89288.0, 400.0, -1.03515625, -9.9267578125, -3.4912109375, -0.7938931584358215, 4.106870174407959, 250.12977600097656, 29.549999237060547, -22.049999237060547, -32.099998474121094, 29158204.0
78378.0, 89275.0, 392.0, -1.0546875, -10.68359375, -2.4365234375, 13.114503860473633, -4.5877861976623535, 250.12977600097656, 29.399999618530273, -21.450000762939453, -32.54999923706055, 29172852.0
78376.0, 89265.0, 393.0, -1.123046875, -10.9326171875, -1.806640625, -6.839694499969482, 9.923664093017578, 250.12977600097656, 33.45000076293945, -19.200000762939453, -33.29999923706055, 29187500.0
78360.0, 89259.0, 397.0, -1.4990234375, -9.31640625, -1.875, -13.007633209228516, 28.9007625579834, 250.12977600097656, 33.45000076293945, -19.200000762939453, -33.29999923706055, 29203124.0
78365.0, 89253.0, 397.0, -1.6455078125, -9.072265625, -1.923828125, -22.328245162963867, 30.56488609313965, 250.12977600097656, 33.45000076293945, -19.200000762939453, -33.29999923706055, 29204100.0
78366.0, 89255.0, 397.0, -3.3349609375, -6.4501953125, -2.255859375, -26.97709846496582, 37.114505767822266, 250.12977600097656, 37.20000076293945, -16.649999618530273, -32.099998474121094, 29218750.0
78365.0, 89257.0, 396.0, -3.5302734375, -6.4306640625, -2.265625, -21.23664093017578, 36.946563720703125, 250.12977600097656, 37.20000076293945, -16.649999618530273, -32.099998474121094, 29219726.0
78329.0, 89219.0, 395.0, -5.29296875, -6.5673828125, -2.65625, -13.732824325561523, 35.29771041870117, 209.0, 41.849998474121094, -13.050000190734863, -32.25, 29248046.0
78329.0, 89202.0, 395.0, -5.302734375, -6.5966796875, -2.6123046875, -11.603053092956543, 31.717557907104492, 207.5801544189453, 41.849998474121094, -13.050000190734863, -32.25, 29250000.0
78317.0, 89195.0, 395.0, -5.5419921875, -7.3046875, -3.0810546875, -17.98473358154297, 34.77862548828125, 182.6488494873047, 43.20000076293945, -9.75, -33.150001525878906, 29263672.0
78309.0, 89194.0, 397.0, -5.7177734375, -7.333984375, -2.958984375, -13.236640930175781, 31.9007625579834, 180.3511505126953, 43.20000076293945, -9.75, -33.150001525878906, 29264648.0
78301.0, 89172.0, 395.0, -5.986328125, -6.7041015625, -3.2568359375, -7.526717662811279, 29.48091697692871, 150.10687255859375, 44.70000076293945, -7.349999904632568, -33.150001525878906, 29278320.0
78286.0, 89164.0, 402.0, -6.494140625, -7.529296875, -3.583984375, -9.167939186096191, 14.885496139526367, 59.32061004638672, 45.75, -5.550000190734863, -34.95000076293945, 29307616.0
78280.0, 89155.0, 403.0, -6.435546875, -7.666015625, -3.65234375, -4.465648651123047, 13.19847297668457, 60.85496139526367, 45.75, -5.550000190734863, -34.95000076293945, 29310546.0
78278.0, 89143.0, 405.0, -6.396484375, -7.5830078125, -3.6767578125, 1.4122138023376465, 9.664122581481934, 49.67938995361328, 45.75, -5.550000190734863, -34.95000076293945, 29323242.0
78286.0, 89169.0, 403.0, -6.5869140625, -6.1865234375, -3.59375, 3.8473281860351562, 0.3358778655529022, 26.954198837280273, 45.29999923706055, -4.800000190734863, -33.150001525878906, 29337890.0
78288.0, 89173.0, 402.0, -6.7578125, -5.4150390625, -3.388671875, 6.526717662811279, 1.6030534505844116, -17.267175674438477, 45.150001525878906, -4.5, -34.5, 29352540.0
78299.0, 89182.0, 399.0, -6.7822265625, -5.1123046875, -2.8857421875, 3.213740587234497, 2.4503817558288574, -65.63359069824219, 46.04999923706055, -3.9000000953674316, -35.400001525878906, 29367188.0
78297.0, 89193.0, 402.0, -6.6357421875, -5.2734375, -2.9296875, 5.85496187210083, 3.9541985988616943, -71.69465637207031, 46.04999923706055, -3.9000000953674316, -35.400001525878906, 29369140.0
78311.0, 89202.0, 401.0, -6.3525390625, -5.0439453125, -2.6611328125, 16.412214279174805, 2.282442808151245, -120.19084167480469, 46.650001525878906, -4.5, -33.75, 29382812.0
78316.0, 89207.0, 401.0, -6.4111328125, -4.82421875, -2.71484375, 8.190839767456055, 5.671755790710449, -125.46565246582031, 46.650001525878906, -4.5, -33.75, 29384764.0
78313.0, 89219.0, 401.0, -5.7275390625, -4.1650390625, -2.4365234375, 2.0152671337127686, 3.320610761642456, -204.15267944335938, 45.900001525878906, -5.25, -35.099998474121094, 29398436.0
78332.0, 89244.0, 403.0, -4.9755859375, -4.0771484375, -2.666015625, 6.503816604614258, 12.076335906982422, -250.1374053955078, 43.5, -7.349999904632568, -34.95000076293945, 29413084.0
78335.0, 89250.0, 410.0, -4.6875, -4.0673828125, -2.529296875, 8.51145076751709, 12.053435325622559, -250.1374053955078, 43.5, -7.349999904632568, -34.95000076293945, 29415040.0
78353.0, 89270.0, 406.0, -3.7939453125, -6.923828125, -3.0712890625, -10.0, 16.335878372192383, -250.1374053955078, 42.0, -10.5, -34.95000076293945, 29428710.0
78340.0, 89267.0, 406.0, -2.4755859375, -13.02734375, -3.1201171875, 6.175572395324707, 18.190839767456055, -250.1374053955078, 42.0, -10.5, -34.95000076293945, 29442382.0
78347.0, 89253.0, 404.0, -2.2705078125, -13.3056640625, -3.1689453125, 11.900763511657715, 15.961832046508789, -250.1374053955078, 36.900001525878906, -13.5, -35.400001525878906, 29444336.0
78325.0, 89253.0, 404.0, -2.119140625, -13.0908203125, -3.505859375, 11.58015251159668, 13.12977123260498, -250.1374053955078, 34.5, -14.100000381469727, -35.849998474121094, 29458008.0
78331.0, 89251.0, 405.0, -2.20703125, -13.037109375, -3.544921875, 9.458015441894531, 17.137405395507812, -250.1374053955078, 34.5, -14.100000381469727, -35.849998474121094, 29459960.0
78332.0, 89258.0, 401.0, -1.9970703125, -10.908203125, -3.5205078125, 14.22137451171875, 11.48854923248291, -233.6946563720703, 34.20000076293945, -15.300000190734863, -35.849998474121094, 29473632.0
78336.0, 89271.0, 402.0, -1.97265625, -10.654296875, -3.6083984375, 17.687023162841797, 8.564885139465332, -232.343505859375, 32.099998474121094, -15.449999809265137, -35.70000076293945, 29474608.0
78334.0, 89269.0, 402.0, -1.220703125, -9.2626953125, -3.1005859375, 11.984732627868652, 6.885496139526367, -246.4809112548828, 32.099998474121094, -15.449999809265137, -35.70000076293945, 29488280.0
78344.0, 89285.0, 405.0, -0.7177734375, -8.5888671875, -3.06640625, 19.137405395507812, 2.29007625579834, -250.1374053955078, 29.25, -16.649999618530273, -36.45000076293945, 29501952.0
78342.0, 89296.0, 406.0, 0.0341796875, -8.935546875, -3.10546875, 22.824426651000977, -1.4427480697631836, -250.1374053955078, 26.850000381469727, -18.0, -35.54999923706055, 29517578.0
78342.0, 89280.0, 407.0, 0.6494140625, -10.2783203125, -3.359375, 41.39694595336914, -13.595419883728027, -250.1374053955078, 24.600000381469727, -19.200000762939453, -35.849998474121094, 29532226.0
78339.0, 89276.0, 410.0, 0.76171875, -10.5615234375, -3.30078125, 46.03053283691406, -15.320611000061035, -250.1374053955078, 24.450000762939453, -19.649999618530273, -36.0, 29534180.0
78336.0, 89268.0, 404.0, 1.435546875, -12.138671875, -3.5107421875, 52.63358688354492, -35.229007720947266, -250.1374053955078, 21.75, -17.850000381469727, -35.400001525878906, 29548828.0
78330.0, 89246.0, 401.0, 2.2509765625, -13.18359375, -3.1396484375, 69.86259460449219, -50.46564865112305, -250.1374053955078, 21.75, -17.850000381469727, -35.400001525878906, 29562500.0
78320.0, 89230.0, 403.0, 2.5, -13.4375, -2.96875, 62.12213897705078, -47.847328186035156, -243.37405395507812, 19.950000762939453, -20.100000381469727, -32.400001525878906, 29564452.0
78306.0, 89220.0, 401.0, 3.3984375, -13.6279296875, -2.1875, 53.992366790771484, -45.152671813964844, -162.87022399902344, 19.799999237060547, -19.5, -31.950000762939453, 29578124.0
78309.0, 89200.0, 397.0, 3.4716796875, -12.7587890625, -1.6455078125, 22.290077209472656, -24.427480697631836, -77.0457992553711, 18.0, -21.899999618530273, -32.25, 29592772.0
78308.0, 89195.0, 401.0, 3.4228515625, -12.44140625, -1.6015625, 18.297710418701172, -19.61832046508789, -64.51908111572266, 18.0, -21.899999618530273, -32.25, 29594726.0
78302.0, 89188.0, 396.0, 3.076171875, -11.2548828125, -1.40625, -11.122137069702148, -0.49618321657180786, -9.473282814025879, 18.0, -21.899999618530273, -32.25, 29608398.0
78308.0, 89176.0, 395.0, 2.7587890625, -10.498046875, -1.77734375, -41.60305404663086, 10.167939186096191, 15.725191116333008, 19.649999618530273, -20.850000381469727, -29.850000381469727, 29623046.0
78314.0, 89179.0, 397.0, 2.6171875, -10.4736328125, -1.7578125, -37.95419692993164, 10.786259651184082, 15.90839672088623, 19.649999618530273, -20.850000381469727, -29.850000381469727, 29625000.0
78319.0, 89173.0, 397.0, 2.5244140625, -9.853515625, -2.021484375, -50.435115814208984, 14.190839767456055, 11.67175579071045, 16.799999237060547, -21.899999618530273, -31.950000762939453, 29638672.0
78312.0, 89176.0, 394.0, 2.5732421875, -9.8681640625, -1.9775390625, -48.25954055786133, 12.969465255737305, 12.885496139526367, 16.799999237060547, -21.899999618530273, -31.950000762939453, 29639648.0
78310.0, 89175.0, 400.0, 2.28515625, -9.3359375, -2.5, -49.76335906982422, 13.351144790649414, -5.221374034881592, 18.450000762939453, -19.649999618530273, -31.649999618530273, 29653320.0
78321.0, 89163.0, 399.0, 2.373046875, -9.8291015625, -2.98828125, -28.374046325683594, 3.5267176628112793, -19.25954246520996, 16.799999237060547, -20.25, -31.5, 29667968.0
78322.0, 89150.0, 399.0, 2.890625, -11.0107421875, -3.3154296875, -10.572519302368164, 0.8778625726699829, -16.374046325683594, 18.450000762939453, -20.549999237060547, -32.099998474121094, 29682616.0
78320.0, 89156.0, 402.0, 3.0419921875, -11.123046875, -3.2666015625, -12.396946907043457, -1.9007633924484253, -10.854961395263672, 18.450000762939453, -20.549999237060547, -32.099998474121094, 29684570.0
78318.0, 89155.0, 393.0, 3.4423828125, -12.4072265625, -3.515625, -4.41984748840332, -8.427480697631836, 26.786258697509766, 17.700000762939453, -19.350000381469727, -31.649999618530273, 29698242.0
78312.0, 89145.0, 399.0, 3.6181640625, -14.0380859375, -3.6767578125, -0.1221374049782753, -20.93893051147461, 119.32061004638672, 18.299999237060547, -19.950000762939453, -31.950000762939453, 29712890.0
78306.0, 89136.0, 400.0, 3.4423828125, -12.1826171875, -2.734375, -18.610687255859375, -21.81679344177246, 187.98472595214844, 18.299999237060547, -19.950000762939453, -31.950000762939453, 29727540.0
78307.0, 89138.0, 408.0, 3.1591796875, -11.8310546875, -2.75390625, -13.4503812789917, -17.229007720947266, 191.24427795410156, 18.299999237060547, -19.950000762939453, -31.950000762939453, 29729492.0
78306.0, 89142.0, 397.0, 1.9482421875, -10.830078125, -2.333984375, -19.854961395263672, -11.656488418579102, 215.9770965576172, 18.450000762939453, -20.549999237060547, -31.350000381469727, 29743164.0
78314.0, 89135.0, 398.0, 0.9423828125, -11.455078125, -2.63671875, -9.351144790649414, -5.809160232543945, 243.50381469726562, 24.0, -20.549999237060547, -32.849998474121094, 29757812.0
78311.0, 89126.0, 400.0, 0.4443359375, -11.1181640625, -2.548828125, 2.282442808151245, -7.656488418579102, 250.12977600097656, 23.549999237060547, -20.25, -31.950000762939453, 29772460.0
78300.0, 89116.0, 402.0, -0.3564453125, -9.4677734375, -2.3681640625, 9.610687255859375, -3.9770991802215576, 250.12977600097656, 25.200000762939453, -21.299999237060547, -33.150001525878906, 29788084.0
78300.0, 89113.0, 397.0, -0.4736328125, -9.2529296875, -2.373046875, 7.061068534851074, -4.85496187210083, 250.12977600097656, 25.200000762939453, -21.299999237060547, -33.150001525878906, 29790040.0
78301.0, 89107.0, 398.0, -1.1376953125, -8.8330078125, -2.3681640625, 12.900763511657715, -4.267175674438477, 250.12977600097656, 28.049999237060547, -19.649999618530273, -32.849998474121094, 29803710.0
78292.0, 89083.0, 390.0, -1.474609375, -10.712890625, -2.3583984375, -1.893129825592041, 1.465648889541626, 250.12977600097656, 30.450000762939453, -20.25, -33.0, 29817382.0
78285.0, 89071.0, 391.0, -1.484375, -11.1767578125, -2.3583984375, 5.175572395324707, 0.3893129825592041, 250.12977600097656, 30.450000762939453, -20.25, -33.0, 29819336.0
78272.0, 89045.0, 397.0, -1.298828125, -11.66015625, -2.01171875, 2.7328243255615234, 14.954198837280273, 250.12977600097656, 33.599998474121094, -18.899999618530273, -33.900001525878906, 29833008.0
78268.0, 89037.0, 398.0, -1.3916015625, -11.46484375, -2.1826171875, -4.809160232543945, 15.41984748840332, 250.12977600097656, 33.599998474121094, -18.899999618530273, -33.900001525878906, 29834960.0
78259.0, 89018.0, 393.0, -2.353515625, -10.888671875, -2.265625, -14.030534744262695, 27.98473358154297, 250.12977600097656, 33.599998474121094, -18.899999618530273, -33.900001525878906, 29848632.0
78248.0, 89003.0, 392.0, -2.197265625, -10.9228515625, -2.294921875, -10.061068534851074, 28.274808883666992, 250.12977600097656, 33.599998474121094, -18.899999618530273, -33.900001525878906, 29849608.0
78242.0, 89003.0, 391.0, -3.0322265625, -8.681640625, -2.3388671875, -23.503816604614258, 31.03816795349121, 250.12977600097656, 36.900001525878906, -16.200000762939453, -32.849998474121094, 29863280.0
78232.0, 88992.0, 394.0, -4.04296875, -6.162109375, -2.3193359375, -24.290077209472656, 25.824426651000977, 250.12977600097656, 38.70000076293945, -14.399999618530273, -33.900001525878906, 29877928.0
78228.0, 88981.0, 400.0, -4.2919921875, -5.9228515625, -2.5, -19.427480697631836, 24.908397674560547, 250.12977600097656, 40.79999923706055, -13.800000190734863, -33.29999923706055, 29879882.0
78226.0, 88968.0, 398.0, -5.263671875, -4.921875, -2.4853515625, -11.625954627990723, 26.39694595336914, 222.3282470703125, 41.25, -11.25, -34.20000076293945, 29893554.0
78212.0, 88962.0, 398.0, -5.2587890625, -4.8193359375, -2.5390625, -13.305343627929688, 27.717557907104492, 210.33587646484375, 41.25, -11.25, -34.20000076293945, 29894532.0
78214.0, 88956.0, 403.0, -5.712890625, -5.0732421875, -2.6171875, -4.648855209350586, 29.793893814086914, 140.41221618652344, 40.79999923706055, -10.649999618530273, -33.0, 29908204.0
78198.0, 88942.0, 395.0, -5.8642578125, -6.337890625, -2.7978515625, -3.541984796524048, 33.5572509765625, 94.114501953125, 44.849998474121094, -8.699999809265137, -34.79999923706055, 29922852.0
78178.0, 88929.0, 398.0, -6.1474609375, -6.962890625, -3.2763671875, 3.2595419883728027, 26.190839767456055, 66.92366790771484, 43.349998474121094, -7.949999809265137, -34.79999923706055, 29937500.0
78178.0, 88930.0, 395.0, -6.07421875, -7.6611328125, -3.4716796875, -5.358778476715088, 27.0, 49.183204650878906, 43.650001525878906, -7.650000095367432, -36.29999923706055, 29952148.0
78180.0, 88925.0, 398.0, -6.07421875, -7.8515625, -3.5595703125, -0.7862595319747925, 25.534351348876953, 47.86259460449219, 43.650001525878906, -7.650000095367432, -36.29999923706055, 29954100.0
78176.0, 88934.0, 406.0, -5.9228515625, -7.48046875, -3.45703125, -0.3358778655529022, 27.12213706970215, 22.67938995361328, 43.650001525878906, -7.650000095367432, -36.29999923706055, 29967772.0
78174.0, 88943.0, 398.0, -5.8837890625, -7.3583984375, -3.5498046875, -9.015267372131348, 26.167938232421875, 20.526718139648438, 43.04999923706055, -7.650000095367432, -35.54999923706055, 29969726.0
78183.0, 88972.0, 402.0, -5.888671875, -6.318359375, -3.447265625, -0.5877862572669983, 21.687023162841797, -54.87786102294922, 42.0, -8.25, -36.75, 29998046.0
78193.0, 88985.0, 401.0, -5.78125, -5.72265625, -3.30078125, 7.969465732574463, 22.885496139526367, -94.6030502319336, 41.099998474121094, -8.399999618530273, -37.349998474121094, 30012696.0
78214.0, 88997.0, 400.0, -5.4736328125, -3.5302734375, -3.2470703125, 16.427480697631836, 21.870229721069336, -183.00762939453125, 41.54999923706055, -7.650000095367432, -36.29999923706055, 30027344.0
78203.0, 89008.0, 392.0, -5.322265625, -3.330078125, -3.1640625, 15.862595558166504, 17.60305404663086, -196.6793975830078, 41.54999923706055, -7.650000095367432, -36.29999923706055, 30029296.0
78227.0, 89032.0, 394.0, -4.16015625, -2.0263671875, -2.8662109375, 18.74045753479004, 19.786258697509766, -250.1374053955078, 38.25, -9.600000381469727, -37.349998474121094, 30042968.0
78239.0, 89065.0, 398.0, -2.2412109375, -3.310546875, -2.373046875, 24.862594604492188, 28.213741302490234, -250.1374053955078, 36.29999923706055, -12.300000190734863, -38.849998474121094, 30057616.0
78248.0, 89093.0, 399.0, 0.185546875, -7.2802734375, -2.0947265625, 17.58015251159668, 55.48091506958008, -250.1374053955078, 32.849998474121094, -13.5, -38.25, 30072264.0
78260.0, 89105.0, 402.0, 0.4833984375, -7.802734375, -2.0458984375, 13.442748069763184, 55.0, -250.1374053955078, 32.849998474121094, -13.5, -38.25, 30074218.0
78272.0, 89132.0, 399.0, 2.158203125, -11.38671875, -2.5830078125, 23.61832046508789, 71.09923553466797, -250.1374053955078, 25.799999237060547, -13.5, -39.75, 30087890.0
78270.0, 89147.0, 395.0, 2.2509765625, -11.93359375, -2.67578125, 25.885496139526367, 73.31298065185547, -250.1374053955078, 25.799999237060547, -13.5, -39.75, 30089844.0
78280.0, 89158.0, 400.0, 3.1787109375, -14.521484375, -3.955078125, 64.31298065185547, 53.71755599975586, -250.1374053955078, 21.450000762939453, -14.399999618530273, -39.29999923706055, 30102540.0
78267.0, 89142.0, 406.0, 3.3154296875, -17.294921875, -5.5078125, 89.72518920898438, 2.1984732151031494, -250.1374053955078, 16.799999237060547, -13.350000381469727, -36.599998474121094, 30117188.0
78261.0, 89135.0, 401.0, 3.41796875, -17.8857421875, -5.791015625, 90.22137451171875, -2.885496139526367, -250.1374053955078, 16.799999237060547, -13.350000381469727, -36.599998474121094, 30119140.0
78245.0, 89113.0, 403.0, 4.0380859375, -18.7255859375, -5.888671875, 92.79389190673828, -51.13740539550781, -233.0915985107422, 16.799999237060547, -13.350000381469727, -36.599998474121094, 30132812.0
78240.0, 89114.0, 398.0, 4.0771484375, -18.359375, -5.7861328125, 89.66412353515625, -55.167938232421875, -216.656494140625, 16.799999237060547, -13.350000381469727, -36.599998474121094, 30134764.0
78241.0, 89118.0, 402.0, 4.365234375, -15.205078125, -3.505859375, 66.94656372070312, -68.6030502319336, -46.38167953491211, 14.399999618530273, -12.449999809265137, -35.70000076293945, 30148436.0
78257.0, 89134.0, 407.0, 3.6572265625, -10.2978515625, -1.6162109375, 28.450382232666016, -49.671756744384766, 33.725189208984375, 16.649999618530273, -13.949999809265137, -34.20000076293945, 30163084.0
78275.0, 89150.0, 406.0, 2.6318359375, -7.5537109375, -1.5380859375, -1.9007633924484253, -20.83969497680664, -0.16030535101890564, 17.25, -15.300000190734863, -34.5, 30177734.0
78285.0, 89144.0, 408.0, 1.9775390625, -7.9833984375, -3.6083984375, 18.748090744018555, -24.870229721069336, -71.52671813964844, 16.649999618530273, -15.149999618530273, -31.649999618530273, 30192382.0
78283.0, 89141.0, 410.0, 1.9775390625, -8.271484375, -3.8916015625, 38.80916213989258, -34.64885330200195, -74.51908111572266, 16.649999618530273, -15.149999618530273, -31.649999618530273, 30194336.0
78273.0, 89116.0, 404.0, 2.138671875, -9.4775390625, -4.365234375, 74.28244018554688, -77.0687026977539, -121.38931274414062, 15.600000381469727, -15.899999618530273, -32.400001525878906, 30208008.0
78264.0, 89105.0, 405.0, 2.1826171875, -9.6337890625, -4.1845703125, 86.25190734863281, -85.68702697753906, -122.61832427978516, 15.600000381469727, -15.899999618530273, -32.400001525878906, 30209960.0
78252.0, 89098.0, 407.0, 3.4033203125, -10.3173828125, -2.5048828125, 90.05343627929688, -101.75572204589844, -122.22137451171875, 17.100000381469727, -17.100000381469727, -31.049999237060547, 30223632.0
78256.0, 89093.0, 401.0, 3.5595703125, -10.3271484375, -2.32421875, 85.27481079101562, -102.29007720947266, -121.54962158203125, 17.100000381469727, -17.100000381469727, -31.049999237060547, 30224608.0
78254.0, 89077.0, 403.0, 4.2578125, -10.986328125, -1.3525390625, 62.58015441894531, -86.30534362792969, -90.26717376708984, 17.700000762939453, -19.649999618530273, -28.5, 30238280.0
78241.0, 89065.0, 404.0, 4.287109375, -11.3525390625, -1.38671875, 39.51908493041992, -57.511451721191406, -52.610687255859375, 17.700000762939453, -19.649999618530273, -28.5, 30252928.0
78237.0, 89059.0, 402.0, 4.140625, -11.50390625, -1.4501953125, 28.9007625579834, -57.946563720703125, -40.01526641845703, 18.899999618530273, -21.600000381469727, -28.5, 30254882.0
78237.0, 89045.0, 402.0, 3.73046875, -11.5576171875, -1.5771484375, 22.93893051147461, -43.06106948852539, -5.404580116271973, 18.899999618530273, -21.600000381469727, -26.25, 30268554.0
78231.0, 89036.0, 399.0, 3.5791015625, -11.259765625, -1.6015625, 20.076335906982422, -42.53435134887695, 3.221374034881592, 18.899999618530273, -21.600000381469727, -26.25, 30269532.0
78230.0, 89033.0, 399.0, 3.4912109375, -11.3232421875, -1.484375, 6.152671813964844, -36.85496139526367, 38.13740539550781, 18.450000762939453, -20.850000381469727, -26.25, 30283204.0
78209.0, 89011.0, 404.0, 3.408203125, -11.7626953125, -1.30859375, 7.465648651123047, -31.328245162963867, 78.25190734863281, 18.450000762939453, -20.850000381469727, -27.0, 30297852.0
78217.0, 89007.0, 401.0, 3.3984375, -11.9921875, -1.4892578125, 8.396946907043457, -31.80152702331543, 86.96946716308594, 18.450000762939453, -20.850000381469727, -27.0, 30299804.0
78208.0, 88992.0, 400.0, 3.49609375, -13.173828125, -1.279296875, 4.190839767456055, -29.80152702331543, 146.49618530273438, 20.100000381469727, -21.899999618530273, -24.600000381469727, 30313476.0
78189.0, 88960.0, 399.0, 3.61328125, -12.75390625, -0.751953125, -17.648855209350586, -12.832060813903809, 219.64122009277344, 21.149999618530273, -21.299999237060547, -25.5, 30327148.0
78187.0, 88960.0, 402.0, 3.41796875, -12.4658203125, -0.654296875, -18.02290153503418, -5.893129825592041, 226.1908416748047, 21.149999618530273, -21.299999237060547, -25.5, 30330078.0
78175.0, 88933.0, 396.0, 1.669921875, -12.333984375, -1.4111328125, -38.1984748840332, 29.23664093017578, 250.12977600097656, 24.899999618530273, -21.450000762939453, -28.649999618530273, 30358398.0
78162.0, 88908.0, 401.0, 0.8447265625, -9.6826171875, -1.4208984375, -24.145038604736328, 41.893131256103516, 250.12977600097656, 24.899999618530273, -21.450000762939453, -28.649999618530273, 30373046.0
78165.0, 88904.0, 401.0, 0.751953125, -9.27734375, -1.3818359375, -23.595420837402344, 38.213741302490234, 250.12977600097656, 25.649999618530273, -21.899999618530273, -30.149999618530273, 30375000.0
78162.0, 88898.0, 403.0, -0.712890625, -8.623046875, -1.5478515625, -16.465648651123047, 41.46564865112305, 250.12977600097656, 25.649999618530273, -21.899999618530273, -30.149999618530273, 30388672.0
78157.0, 88898.0, 404.0, -0.7666015625, -8.7646484375, -1.455078125, -13.854962348937988, 40.152671813964844, 250.12977600097656, 25.649999618530273, -21.899999618530273, -30.149999618530273, 30389648.0
78153.0, 88877.0, 402.0, -1.09375, -10.3466796875, -1.435546875, -15.564885139465332, 46.23664093017578, 250.12977600097656, 32.54999923706055, -18.899999618530273, -31.049999237060547, 30403320.0
78140.0, 88852.0, 399.0, -1.416015625, -12.021484375, -1.8115234375, -19.572519302368164, 54.80916213989258, 250.12977600097656, 33.0, -18.75, -30.450000762939453, 30417968.0
78131.0, 88835.0, 405.0, -1.19140625, -10.3466796875, -1.6259765625, -17.145038604736328, 60.95419692993164, 250.12977600097656, 35.25, -18.450000762939453, -30.75, 30432616.0
78128.0, 88835.0, 401.0, -2.71484375, -6.0205078125, -2.2607421875, -22.251909255981445, 64.35114288330078, 250.12977600097656, 37.5, -14.850000381469727, -31.200000762939453, 30447264.0
78129.0, 88846.0, 399.0, -3.1591796875, -5.322265625, -2.2265625, -18.427480697631836, 64.03816986083984, 250.12977600097656, 37.5, -14.850000381469727, -31.200000762939453, 30450196.0
78118.0, 88846.0, 397.0, -5.1953125, -3.2958984375, -2.880859375, -12.725191116333008, 51.30534362792969, 249.5343475341797, 41.25, -11.25, -33.150001525878906, 30462890.0
78141.0, 88855.0, 398.0, -5.25390625, -3.3837890625, -3.0712890625, -12.755724906921387, 53.1297721862793, 232.4427490234375, 41.25, -11.25, -33.150001525878906, 30464844.0
78125.0, 88845.0, 396.0, -5.52734375, -6.2451171875, -3.2080078125, -12.351144790649414, 39.19084167480469, 164.35877990722656, 41.70000076293945, -9.0, -32.849998474121094, 30478516.0
78121.0, 88839.0, 400.0, -5.478515625, -6.708984375, -3.1982421875, -5.992366313934326, 38.35114669799805, 159.16793823242188, 41.70000076293945, -9.0, -32.849998474121094, 30479492.0
78118.0, 88828.0, 403.0, -5.6591796875, -7.8271484375, -3.2373046875, -1.4732824563980103, 28.6564884185791, 133.2366485595703, 43.04999923706055, -8.399999618530273, -34.5, 30493164.0
78118.0, 88834.0, 401.0, -5.7275390625, -7.626953125, -3.310546875, -2.114503860473633, 20.206106185913086, 127.38931274414062, 43.04999923706055, -8.399999618530273, -34.5, 30507812.0
78141.0, 88853.0, 405.0, -6.220703125, -6.796875, -3.5791015625, 0.5954198241233826, 19.96183204650879, 89.84732818603516, 42.45000076293945, -6.599999904632568, -34.95000076293945, 30522460.0
78153.0, 88877.0, 399.0, -6.3818359375, -6.7578125, -3.7060546875, -4.847328186035156, 15.083969116210938, 50.28244400024414, 44.25, -6.599999904632568, -33.599998474121094, 30537108.0
78167.0, 88903.0, 402.0, -6.2646484375, -5.9375, -3.642578125, 7.511450290679932, 3.6870229244232178, -3.961832046508789, 44.400001525878906, -6.150000095367432, -34.04999923706055, 30552734.0
78187.0, 88924.0, 398.0, -6.19140625, -5.64453125, -3.134765625, 11.435114860534668, -2.2366411685943604, -58.61832046508789, 43.5, -6.599999904632568, -33.900001525878906, 30567382.0
78186.0, 88934.0, 394.0, -6.142578125, -5.771484375, -3.02734375, 8.587786674499512, -0.19083969295024872, -66.01526641845703, 43.5, -6.599999904632568, -33.900001525878906, 30570312.0
78202.0, 88953.0, 399.0, -6.03515625, -4.580078125, -2.919921875, -3.5648856163024902, 6.488549709320068, -141.35877990722656, 43.349998474121094, -4.949999809265137, -33.0, 30583008.0
78207.0, 88969.0, 399.0, -6.0009765625, -4.0966796875, -2.9296875, 5.358778476715088, 3.2977099418640137, -153.16030883789062, 43.349998474121094, -4.949999809265137, -33.0, 30584960.0
78223.0, 88970.0, 410.0, -4.873046875, -2.333984375, -3.0126953125, 7.458015441894531, -1.2442748546600342, -250.1374053955078, 44.25, -5.550000190734863, -33.150001525878906, 30598632.0
78227.0, 88990.0, 403.0, -4.6630859375, -1.9580078125, -2.8662109375, 0.4351145029067993, -6.389313220977783, -250.1374053955078, 44.25, -5.550000190734863, -33.150001525878906, 30599608.0
78242.0, 89020.0, 407.0, -2.6611328125, -0.2001953125, -2.021484375, 3.610687017440796, 2.068702220916748, -250.1374053955078, 40.79999923706055, -8.699999809265137, -35.54999923706055, 30613280.0
78257.0, 89046.0, 408.0, 0.5078125, -1.7724609375, -1.6064453125, -5.870229244232178, 28.496183395385742, -250.1374053955078, 40.79999923706055, -8.699999809265137, -35.54999923706055, 30627928.0
78263.0, 89056.0, 404.0, 0.9375, -2.8955078125, -1.806640625, -11.885496139526367, 34.7557258605957, -250.1374053955078, 40.79999923706055, -8.699999809265137, -35.54999923706055, 30629882.0
78253.0, 89055.0, 410.0, 3.486328125, -8.9453125, -2.6220703125, 16.22137451171875, 50.16030502319336, -250.1374053955078, 32.849998474121094, -13.949999809265137, -34.20000076293945, 30643554.0
78260.0, 89066.0, 412.0, 3.65234375, -9.6240234375, -2.5634765625, 17.664121627807617, 49.26717758178711, -250.1374053955078, 32.849998474121094, -13.949999809265137, -34.20000076293945, 30644532.0
78248.0, 89064.0, 410.0, 5.15625, -15.703125, -4.2578125, 115.3740463256836, 5.2366414070129395, -250.1374053955078, 28.950000762939453, -15.300000190734863, -34.5, 30658204.0
78209.0, 89011.0, 412.0, 4.9267578125, -19.5849609375, -5.5078125, 182.38168334960938, -76.50381469726562, -250.1374053955078, 25.5, -16.649999618530273, -32.849998474121094, 30671876.0
78169.0, 88961.0, 399.0, 5.3515625, -20.0, -4.6240234375, 135.98472595214844, -128.03053283691406, -250.1374053955078, 19.049999237060547, -19.5, -29.399999618530273, 30687500.0
78185.0, 89000.0, 410.0, 5.2392578125, -15.9326171875, -0.947265625, 79.6030502319336, -117.5114517211914, -78.86259460449219, 18.0, -21.899999618530273, -27.149999618530273, 30702148.0
78207.0, 89036.0, 404.0, 5.1611328125, -15.234375, -0.458984375, 60.229007720947266, -113.30534362792969, -44.35877990722656, 18.0, -21.899999618530273, -27.149999618530273, 30705078.0
78240.0, 89100.0, 405.0, 4.6875, -11.2939453125, 1.5087890625, -3.7251908779144287, -50.41221237182617, 44.488548278808594, 18.299999237060547, -23.399999618530273, -25.049999237060547, 30717772.0
78259.0, 89126.0, 403.0, 4.4677734375, -10.76171875, 1.533203125, -3.0534350872039795, -41.79389190673828, 51.114505767822266, 18.299999237060547, -23.399999618530273, -25.049999237060547, 30719726.0
78281.0, 89157.0, 404.0, 3.8232421875, -8.5888671875, 0.751953125, -33.2442741394043, 15.022900581359863, 40.35114669799805, 18.450000762939453, -23.25, -23.700000762939453, 30733398.0
78308.0, 89195.0, 404.0, 3.0078125, -8.564453125, -1.4306640625, -44.6870231628418, 37.114505767822266, 0.6793892979621887, 18.299999237060547, -22.950000762939453, -23.850000381469727, 30748046.0
78302.0, 89188.0, 411.0, 2.94921875, -8.916015625, -1.9287109375, -48.167938232421875, 27.106870651245117, -4.053435325622559, 18.0, -23.700000762939453, -24.299999237060547, 30750000.0
78305.0, 89205.0, 406.0, 2.4365234375, -9.9658203125, -2.7197265625, -14.030534744262695, 4.862595558166504, -25.60305404663086, 17.700000762939453, -23.25, -27.0, 30763672.0
78306.0, 89190.0, 409.0, 2.6171875, -10.0439453125, -2.87109375, -13.977099418640137, 0.6793892979621887, -26.87786293029785, 17.700000762939453, -23.25, -27.0, 30764648.0
78314.0, 89204.0, 408.0, 2.7783203125, -10.439453125, -1.8359375, 7.610687255859375, -21.93893051147461, -19.610687255859375, 18.149999618530273, -23.549999237060547, -25.200000762939453, 30778320.0
78311.0, 89199.0, 410.0, 3.33984375, -10.6787109375, -1.337890625, 10.396946907043457, -18.931297302246094, 4.862595558166504, 18.0, -25.350000381469727, -25.049999237060547, 30792968.0
78312.0, 89184.0, 412.0, 3.33984375, -10.9814453125, -1.1865234375, 8.312976837158203, -17.847328186035156, 10.854961395263672, 18.0, -25.350000381469727, -25.049999237060547, 30794920.0
78305.0, 89171.0, 411.0, 3.6083984375, -11.6650390625, -1.4990234375, -3.5572519302368164, -9.954198837280273, 56.50381851196289, 18.299999237060547, -23.399999618530273, -25.049999237060547, 30808592.0
78298.0, 89171.0, 411.0, 3.61328125, -11.708984375, -1.6455078125, -1.1145038604736328, -7.503816604614258, 62.14503860473633, 18.450000762939453, -24.75, -25.200000762939453, 30809570.0
78291.0, 89147.0, 412.0, 3.7451171875, -13.095703125, -2.3828125, 8.244275093078613, -8.641221046447754, 132.64122009277344, 18.899999618530273, -25.5, -25.200000762939453, 30823242.0
78270.0, 89113.0, 408.0, 4.21875, -14.0771484375, -1.9873046875, 4.778625965118408, -9.61832046508789, 226.89312744140625, 19.799999237060547, -23.700000762939453, -25.049999237060547, 30837890.0
78259.0, 89089.0, 411.0, 4.3505859375, -13.7255859375, -1.8408203125, -9.648855209350586, -6.656488418579102, 239.45037841796875, 19.799999237060547, -23.700000762939453, -25.049999237060547, 30839844.0
78247.0, 89080.0, 410.0, 3.6767578125, -10.693359375, -1.1572265625, -23.862594604492188, 6.183206081390381, 250.12977600097656, 22.950000762939453, -24.75, -27.75, 30853516.0
78248.0, 89072.0, 405.0, 3.359375, -10.0830078125, -1.015625, -28.076335906982422, 13.954198837280273, 250.12977600097656, 22.950000762939453, -24.75, -27.75, 30855468.0
78252.0, 89065.0, 407.0, 1.7333984375, -8.076171875, -1.259765625, -27.083969116210938, 32.08396911621094, 231.71755981445312, 22.799999237060547, -23.700000762939453, -26.850000381469727, 30868164.0
78248.0, 89041.0, 406.0, 0.1611328125, -8.2666015625, -2.587890625, -18.56488609313965, 24.007633209228516, 189.38931274414062, 24.600000381469727, -22.200000762939453, -27.899999618530273, 30882812.0
78226.0, 89012.0, 404.0, -0.224609375, -10.9521484375, -2.939453125, -3.755725145339966, 6.27480936050415, 185.00762939453125, 26.100000381469727, -23.399999618530273, -28.649999618530273, 30898436.0
78201.0, 88975.0, 406.0, 0.361328125, -12.4609375, -2.0947265625, 8.664122581481934, -0.12977099418640137, 224.10687255859375, 26.100000381469727, -23.399999618530273, -28.649999618530273, 30912108.0
78195.0, 88965.0, 405.0, 0.4345703125, -12.3486328125, -1.923828125, 18.229007720947266, -1.4198473691940308, 234.41221618652344, 26.100000381469727, -23.399999618530273, -28.649999618530273, 30915040.0
78183.0, 88940.0, 408.0, 0.2001953125, -11.689453125, -1.5966796875, -3.9770991802215576, 18.030534744262695, 250.12977600097656, 29.700000762939453, -21.0, -28.649999618530273, 30927734.0
78180.0, 88928.0, 406.0, 0.1953125, -11.474609375, -1.6162109375, -3.2061069011688232, 19.534351348876953, 250.12977600097656, 29.700000762939453, -21.0, -28.649999618530273, 30929688.0
78173.0, 88911.0, 410.0, -0.6640625, -9.9267578125, -1.5966796875, -16.48091697692871, 32.38167953491211, 250.12977600097656, 31.200000762939453, -21.0, -27.600000381469727, 30943360.0
78172.0, 88907.0, 409.0, -1.0693359375, -8.6865234375, -2.0361328125, -18.48091697692871, 37.01526641845703, 250.12977600097656, 32.54999923706055, -22.049999237060547, -28.5, 30958008.0
78168.0, 88904.0, 411.0, -1.3330078125, -8.8427734375, -2.05078125, -28.45801544189453, 36.63358688354492, 250.12977600097656, 32.54999923706055, -22.049999237060547, -28.5, 30959960.0
78174.0, 88906.0, 409.0, -2.1533203125, -9.1259765625, -2.1044921875, -17.648855209350586, 33.76335906982422, 224.6717529296875, 34.349998474121094, -19.649999618530273, -28.5, 30973632.0
78175.0, 88900.0, 406.0, -2.3681640625, -9.091796875, -2.2021484375, -21.23664093017578, 29.503816604614258, 221.31297302246094, 34.349998474121094, -19.649999618530273, -28.5, 30975584.0
78171.0, 88898.0, 406.0, -3.125, -9.7900390625, -2.236328125, -20.465648651123047, 28.106870651245117, 205.32061767578125, 37.20000076293945, -16.649999618530273, -28.799999237060547, 30988280.0
78165.0, 88890.0, 409.0, -3.3056640625, -10.3857421875, -2.0458984375, -10.664122581481934, 25.9007625579834, 215.22137451171875, 38.54999923706055, -16.049999237060547, -31.5, 31002928.0
78166.0, 88888.0, 402.0, -3.798828125, -8.9013671875, -2.177734375, -15.32824420928955, 26.67938995361328, 211.5190887451172, 40.349998474121094, -14.850000381469727, -29.399999618530273, 31017578.0
78163.0, 88889.0, 405.0, -3.974609375, -8.49609375, -2.099609375, -19.702289581298828, 25.786258697509766, 211.49618530273438, 40.349998474121094, -14.850000381469727, -29.399999618530273, 31020508.0
78161.0, 88898.0, 403.0, -4.6142578125, -7.3779296875, -2.32421875, -18.12213706970215, 24.129770278930664, 182.6488494873047, 40.349998474121094, -14.850000381469727, -29.399999618530273, 31033204.0
78169.0, 88902.0, 404.0, -4.921875, -7.9150390625, -2.32421875, -9.48854923248291, 20.488550186157227, 150.27481079101562, 42.45000076293945, -12.75, -29.100000381469727, 31047852.0
78164.0, 88902.0, 411.0, -4.990234375, -7.9931640625, -2.509765625, -8.900763511657715, 16.4427490234375, 146.81678771972656, 42.45000076293945, -12.75, -29.100000381469727, 31049804.0
78168.0, 88890.0, 409.0, -5.3857421875, -8.115234375, -2.470703125, -6.061068534851074, 12.358778953552246, 137.26718139648438, 43.349998474121094, -10.350000381469727, -29.700000762939453, 31063476.0
78156.0, 88894.0, 402.0, -5.302734375, -8.232421875, -2.3779296875, -9.259542465209961, 14.320611000061035, 132.95419311523438, 43.349998474121094, -10.350000381469727, -29.700000762939453, 31065428.0
78160.0, 88894.0, 403.0, -5.5126953125, -8.02734375, -2.5732421875, -6.458015441894531, 12.41984748840332, 131.12213134765625, 44.400001525878906, -12.300000190734863, -28.950000762939453, 31078124.0
78154.0, 88903.0, 405.0, -5.64453125, -7.373046875, -2.34375, -7.488549709320068, 15.09160327911377, 100.7404556274414, 45.150001525878906, -9.149999618530273, -30.149999618530273, 31092772.0
78149.0, 88898.0, 397.0, -5.673828125, -7.2509765625, -2.3779296875, -4.526717662811279, 16.694656372070312, 92.63359069824219, 45.0, -8.25, -29.850000381469727, 31095704.0
78156.0, 88899.0, 403.0, -5.9912109375, -7.32421875, -2.6123046875, -3.358778715133667, 14.320611000061035, 58.76335906982422, 45.599998474121094, -6.900000095367432, -31.5, 31108398.0
78159.0, 88907.0, 411.0, -6.0888671875, -6.103515625, -2.7685546875, -0.35877862572669983, 12.526717185974121, 9.67175579071045, 46.04999923706055, -7.800000190734863, -29.850000381469727, 31122070.0
78168.0, 88919.0, 412.0, -5.927734375, -6.435546875, -3.0517578125, 15.67175579071045, -9.938931465148926, -102.6717529296875, 46.650001525878906, -7.650000095367432, -30.149999618530273, 31153320.0
78166.0, 88922.0, 413.0, -5.927734375, -6.50390625, -3.037109375, 18.305343627929688, -12.312976837158203, -109.53435516357422, 46.349998474121094, -7.949999809265137, -31.5, 31155272.0
78165.0, 88917.0, 408.0, -5.3662109375, -7.861328125, -2.36328125, 13.404580116271973, -19.549617767333984, -133.70993041992188, 43.349998474121094, -9.149999618530273, -31.5, 31167968.0
78158.0, 88910.0, 410.0, -5.2490234375, -8.1298828125, -2.20703125, 11.83969497680664, -17.03816795349121, -136.04580688476562, 43.349998474121094, -9.149999618530273, -31.5, 31170898.0
78162.0, 88907.0, 406.0, -4.814453125, -9.1748046875, -1.8896484375, 12.969465255737305, -5.595419883728027, -137.48855590820312, 43.95000076293945, -9.0, -30.299999237060547, 31183592.0
78163.0, 88904.0, 409.0, -4.7509765625, -9.31640625, -1.982421875, 11.22137451171875, -3.9389312267303467, -134.8473358154297, 44.25, -10.949999809265137, -30.299999237060547, 31185546.0
78166.0, 88898.0, 408.0, -4.6337890625, -10.029296875, -2.119140625, -5.068702220916748, 11.763359069824219, -119.64122009277344, 44.25, -10.949999809265137, -30.299999237060547, 31198242.0
78153.0, 88896.0, 409.0, -4.4140625, -8.9306640625, -2.4853515625, -4.572519302368164, 17.9007625579834, -118.3969497680664, 43.349998474121094, -11.399999618530273, -30.450000762939453, 31212890.0
78153.0, 88893.0, 402.0, -4.2333984375, -8.7646484375, -2.490234375, -9.778626441955566, 21.832061767578125, -126.1832046508789, 41.54999923706055, -12.300000190734863, -30.75, 31215820.0
78165.0, 88891.0, 409.0, -4.111328125, -7.412109375, -2.7734375, -2.4809160232543945, 16.755725860595703, -157.16793823242188, 40.650001525878906, -13.199999809265137, -29.549999237060547, 31228516.0
78154.0, 88892.0, 407.0, -4.072265625, -7.1875, -2.8076171875, -7.961832046508789, 14.916030883789062, -172.4045867919922, 40.650001525878906, -13.199999809265137, -29.549999237060547, 31230468.0
78160.0, 88896.0, 408.0, -3.61328125, -5.3076171875, -2.79296875, 12.641221046447754, 4.29007625579834, -250.1374053955078, 41.54999923706055, -13.350000381469727, -30.450000762939453, 31243164.0
78165.0, 88908.0, 403.0, -2.0849609375, -5.361328125, -1.6796875, 6.068702220916748, 10.435114860534668, -250.1374053955078, 38.25, -13.800000190734863, -31.200000762939453, 31257812.0
78171.0, 88896.0, 405.0, -0.48828125, -7.138671875, -1.298828125, 0.08396946638822556, 30.93893051147461, -250.1374053955078, 38.25, -13.800000190734863, -31.200000762939453, 31272460.0
78164.0, 88887.0, 401.0, -0.1904296875, -7.5244140625, -1.416015625, 1.198473334312439, 35.09923553466797, -250.1374053955078, 33.599998474121094, -17.850000381469727, -31.350000381469727, 31275390.0
78150.0, 88866.0, 401.0, 0.712890625, -10.0732421875, -2.255859375, 3.5267176628112793, 38.39694595336914, -250.1374053955078, 30.600000381469727, -18.899999618530273, -29.549999237060547, 31288084.0
78114.0, 88812.0, 396.0, 1.6845703125, -12.9833984375, -3.1982421875, 34.97710037231445, 23.549617767333984, -250.1374053955078, 29.25, -19.350000381469727, -29.850000381469727, 31302734.0
78101.0, 88799.0, 397.0, 1.923828125, -13.8720703125, -3.2275390625, 43.33587646484375, 13.503816604614258, -250.1374053955078, 27.0, -19.649999618530273, -30.600000381469727, 31305664.0
78089.0, 88751.0, 400.0, 2.412109375, -15.8154296875, -4.0673828125, 71.3740463256836, -16.091602325439453, -250.1374053955078, 27.0, -19.649999618530273, -30.600000381469727, 31318360.0
78064.0, 88714.0, 401.0, 3.232421875, -15.9765625, -3.7060546875, 74.0457992553711, -52.1984748840332, -233.4809112548828, 19.950000762939453, -20.850000381469727, -29.100000381469727, 31333008.0
78055.0, 88724.0, 400.0, 3.3251953125, -15.693359375, -3.3984375, 64.22137451171875, -52.09160232543945, -205.45802307128906, 19.950000762939453, -20.850000381469727, -29.549999237060547, 31335936.0
78065.0, 88746.0, 405.0, 3.57421875, -13.4814453125, -2.16796875, 34.450382232666016, -53.725189208984375, -91.83969116210938, 18.899999618530273, -20.549999237060547, -27.299999237060547, 31348632.0
78070.0, 88750.0, 400.0, 3.447265625, -12.9443359375, -1.7822265625, 27.12213706970215, -49.69465637207031, -76.83969116210938, 18.899999618530273, -20.549999237060547, -27.299999237060547, 31350584.0
78092.0, 88784.0, 406.0, 3.1982421875, -10.46875, -0.771484375, 3.6641221046447754, -24.992366790771484, -41.19084167480469, 19.049999237060547, -21.899999618530273, -26.850000381469727, 31363280.0
78108.0, 88810.0, 404.0, 2.412109375, -8.515625, -2.0947265625, -26.664121627807617, 7.893129825592041, -96.12976837158203, 19.799999237060547, -22.649999618530273, -27.899999618530273, 31392578.0
78106.0, 88791.0, 407.0, 2.744140625, -9.931640625, -2.79296875, -11.480916023254395, -2.6183207035064697, -117.54962158203125, 19.649999618530273, -22.799999237060547, -27.299999237060547, 31407226.0
78102.0, 88789.0, 404.0, 2.9052734375, -10.13671875, -2.7294921875, 0.5496183037757874, -4.702290058135986, -113.84732818603516, 19.649999618530273, -22.799999237060547, -27.299999237060547, 31410156.0
78094.0, 88764.0, 400.0, 3.6181640625, -10.9423828125, -2.40234375, 12.48854923248291, -11.122137069702148, -100.01526641845703, 18.450000762939453, -21.299999237060547, -28.049999237060547, 31422852.0
78096.0, 88759.0, 403.0, 3.798828125, -11.2548828125, -1.982421875, 10.572519302368164, -12.114503860473633, -93.1832046508789, 18.450000762939453, -21.299999237060547, -28.049999237060547, 31425780.0
78086.0, 88739.0, 404.0, 4.4287109375, -11.171875, -1.93359375, 8.832060813903809, -9.320611000061035, -60.274810791015625, 18.450000762939453, -21.299999237060547, -28.049999237060547, 31438476.0
78085.0, 88733.0, 403.0, 4.5458984375, -11.376953125, -2.060546875, 7.916030406951904, -10.5496187210083, -52.66412353515625, 18.450000762939453, -21.299999237060547, -28.049999237060547, 31440428.0
78070.0, 88717.0, 401.0, 4.423828125, -11.513671875, -1.982421875, 4.297709941864014, -3.9770991802215576, -8.732824325561523, 18.0, -23.399999618530273, -25.649999618530273, 31453124.0
78071.0, 88705.0, 401.0, 4.169921875, -11.9580078125, -2.3486328125, -6.72519063949585, 1.0305343866348267, 40.488548278808594, 15.75, -24.149999618530273, -25.649999618530273, 31467772.0
78065.0, 88680.0, 397.0, 4.1015625, -12.5732421875, -2.5927734375, -4.793893337249756, -6.671755790710449, 106.17557525634766, 17.549999237060547, -25.649999618530273, -25.049999237060547, 31482420.0
78057.0, 88671.0, 401.0, 3.7744140625, -11.6015625, -1.9775390625, -4.893129825592041, -13.961832046508789, 167.93130493164062, 18.899999618530273, -23.549999237060547, -27.0, 31497070.0
78054.0, 88656.0, 402.0, 3.6328125, -11.5185546875, -1.9873046875, 0.290076345205307, -14.656488418579102, 178.5572509765625, 18.899999618530273, -23.549999237060547, -27.0, 31500976.0
78062.0, 88661.0, 399.0, 3.2763671875, -9.873046875, -1.4697265625, -20.175573348999023, -9.893129348754883, 187.0915985107422, 18.299999237060547, -23.399999618530273, -26.399999618530273, 31513672.0
78050.0, 88635.0, 399.0, 2.2021484375, -9.296875, -1.4404296875, -26.786258697509766, 1.3206106424331665, 168.10687255859375, 21.299999237060547, -24.149999618530273, -26.100000381469727, 31527344.0
78029.0, 88584.0, 394.0, 1.728515625, -10.107421875, -2.275390625, -20.251909255981445, 6.41984748840332, 158.4427490234375, 20.850000381469727, -22.649999618530273, -27.899999618530273, 31542968.0
78026.0, 88584.0, 394.0, 1.62109375, -10.3271484375, -2.3486328125, -16.106870651245117, 10.435114860534668, 156.37403869628906, 20.850000381469727, -22.649999618530273, -27.899999618530273, 31545898.0
78019.0, 88567.0, 400.0, 1.6015625, -11.1962890625, -2.4267578125, -6.221374034881592, 6.3740458488464355, 169.1374053955078, 20.850000381469727, -22.649999618530273, -27.899999618530273, 31558592.0
78016.0, 88555.0, 393.0, 1.4794921875, -11.3037109375, -2.44140625, -13.22137451171875, 5.251908302307129, 169.32061767578125, 22.350000381469727, -22.950000762939453, -27.899999618530273, 31560546.0
78016.0, 88539.0, 395.0, 1.162109375, -11.201171875, -2.3974609375, -6.343511581420898, 1.7557251453399658, 193.5954132080078, 24.450000762939453, -24.75, -29.100000381469727, 31573242.0
78007.0, 88534.0, 394.0, 0.9716796875, -10.751953125, -2.4560546875, -9.90839672088623, 8.045801162719727, 208.00762939453125, 26.25, -24.0, -28.799999237060547, 31587890.0
78008.0, 88534.0, 385.0, 0.8349609375, -10.9423828125, -2.3876953125, -4.7633585929870605, 9.206107139587402, 210.0992431640625, 25.799999237060547, -22.799999237060547, -28.5, 31590820.0
78002.0, 88523.0, 390.0, 0.4443359375, -11.3671875, -2.32421875, -11.190839767456055, 5.43511438369751, 225.3282470703125, 25.799999237060547, -22.799999237060547, -28.5, 31603516.0
