77384.0, 86693.0, 380.0, -2.0166015625, -10.3759765625, -2.4853515625, 11.32824420928955, -9.320611000061035, 4.404580116271973, 6.900000095367432, -37.650001525878906, -77.25, 273998048.0
77399.0, 86698.0, 377.0, -2.1435546875, -10.4150390625, -2.4853515625, 5.793893337249756, -7.007633686065674, 1.2595419883728027, 6.900000095367432, -37.650001525878906, -77.25, 274002944.0
77392.0, 86699.0, 376.0, -2.1826171875, -10.1904296875, -2.48046875, 2.8702290058135986, -6.541984558105469, 0.6183205842971802, 7.349999904632568, -38.400001525878906, -77.69999694824219, 274007808.0
77389.0, 86703.0, 379.0, -2.12890625, -10.2197265625, -2.412109375, 6.3740458488464355, -6.068702220916748, 1.7480915784835815, 7.349999904632568, -38.400001525878906, -77.69999694824219, 274012704.0
77389.0, 86691.0, 381.0, -2.1435546875, -10.0927734375, -2.3486328125, 5.2366414070129395, -11.061068534851074, 4.366412162780762, 7.349999904632568, -37.20000076293945, -77.69999694824219, 274029312.0
77385.0, 86692.0, 367.0, -2.24609375, -10.146484375, -2.28515625, 6.58015251159668, -10.740458488464355, 2.8778626918792725, 7.349999904632568, -37.20000076293945, -77.69999694824219, 274033216.0
77383.0, 86693.0, 382.0, -2.2998046875, -10.0830078125, -2.32421875, 4.343511581420898, -8.900763511657715, 4.221374034881592, 9.0, -37.349998474121094, -76.05000305175781, 274043936.0
77392.0, 86692.0, 379.0, -2.3388671875, -10.1123046875, -2.216796875, 0.8244274854660034, -5.099236488342285, 0.20610687136650085, 6.599999904632568, -36.900001525878906, -76.19999694824219, 274047840.0
77387.0, 86695.0, 382.0, -2.36328125, -10.1904296875, -2.3486328125, 0.8396946787834167, -5.58015251159668, 0.9618320465087891, 5.699999809265137, -36.599998474121094, -76.3499984741211, 274058592.0
77385.0, 86696.0, 372.0, -2.4267578125, -10.2587890625, -2.3681640625, -0.9389312863349915, -2.030534267425537, -0.42748090624809265, 5.699999809265137, -36.599998474121094, -76.3499984741211, 274062496.0
77390.0, 86706.0, 377.0, -2.3095703125, -10.2001953125, -2.1533203125, -3.9007632732391357, -4.1984734535217285, -1.9236640930175781, 7.650000095367432, -36.0, -76.6500015258789, 274073248.0
77383.0, 86695.0, 375.0, -2.20703125, -10.1123046875, -2.3779296875, -2.282442808151245, -6.465648651123047, 2.893129825592041, 7.650000095367432, -36.900001525878906, -74.0999984741211, 274078112.0
77391.0, 86710.0, 376.0, -2.4365234375, -10.029296875, -2.1533203125, -3.5877861976623535, -5.41984748840332, -0.5877862572669983, 7.349999904632568, -36.900001525878906, -75.44999694824219, 274088864.0
77389.0, 86715.0, 378.0, -2.3681640625, -9.921875, -2.138671875, -5.595419883728027, -5.465648651123047, 0.9923664331436157, 7.349999904632568, -36.900001525878906, -75.44999694824219, 274092768.0
77383.0, 86714.0, 375.0, -2.4267578125, -9.9755859375, -2.2021484375, -10.358778953552246, -6.343511581420898, -3.435114622116089, 7.349999904632568, -36.900001525878906, -75.44999694824219, 274103520.0
77380.0, 86722.0, 382.0, -2.2998046875, -10.0732421875, -2.431640625, -12.648855209350586, 1.1755725145339966, -5.282442569732666, 7.349999904632568, -34.95000076293945, -76.94999694824219, 274118176.0
77393.0, 86727.0, 379.0, -2.3583984375, -10.205078125, -2.5244140625, -6.030534267425537, -0.6870229244232178, -0.21374045312404633, 7.349999904632568, -34.95000076293945, -76.94999694824219, 274123040.0
77396.0, 86725.0, 382.0, -2.2802734375, -10.41015625, -2.6025390625, -6.809160232543945, 6.992366313934326, -1.2137404680252075, 6.900000095367432, -35.70000076293945, -75.9000015258789, 274133792.0
77393.0, 86725.0, 381.0, -2.36328125, -10.4248046875, -2.5732421875, -4.541984558105469, 4.43511438369751, -3.1984732151031494, 7.800000190734863, -34.650001525878906, -76.3499984741211, 274137696.0
77392.0, 86732.0, 387.0, -2.2265625, -10.400390625, -2.8076171875, -1.4351145029067993, 6.6946563720703125, 1.9007633924484253, 5.400000095367432, -34.95000076293945, -75.9000015258789, 274148448.0
77396.0, 86751.0, 387.0, -2.0703125, -10.4833984375, -3.2470703125, 2.9083969593048096, 3.496183156967163, 4.870229244232178, 5.400000095367432, -34.20000076293945, -76.6500015258789, 274163072.0
77392.0, 86755.0, 382.0, -2.412109375, -10.0732421875, -3.0712890625, -1.0992366075515747, 4.732824325561523, 5.007633686065674, 7.650000095367432, -34.5, -76.94999694824219, 274177728.0
77398.0, 86755.0, 384.0, -2.197265625, -9.9267578125, -3.0029296875, -3.8473281860351562, 1.8473283052444458, 4.85496187210083, 7.650000095367432, -34.5, -76.94999694824219, 274192384.0
77400.0, 86761.0, 382.0, -2.3583984375, -10.0146484375, -3.0859375, -5.572519302368164, -0.04580152779817581, 4.938931465148926, 5.400000095367432, -35.70000076293945, -76.6500015258789, 274198240.0
77393.0, 86748.0, 382.0, -2.3974609375, -9.9951171875, -2.9931640625, -2.1603052616119385, 0.9389312863349915, 2.9007632732391357, 5.400000095367432, -36.45000076293945, -75.9000015258789, 274208000.0
77392.0, 86749.0, 380.0, -2.5830078125, -9.9853515625, -2.7294921875, -1.9694656133651733, -1.6259541511535645, 6.618320465087891, 5.400000095367432, -36.45000076293945, -75.9000015258789, 274212896.0
77387.0, 86728.0, 383.0, -2.32421875, -10.068359375, -2.55859375, -4.190839767456055, 2.3358778953552246, 2.9389312267303467, 7.050000190734863, -37.04999923706055, -77.55000305175781, 274223616.0
77380.0, 86696.0, 381.0, -2.548828125, -9.921875, -2.861328125, -0.5877862572669983, 1.9007633924484253, 3.603053331375122, 5.25, -34.650001525878906, -77.0999984741211, 274238272.0
77378.0, 86685.0, 376.0, -2.6025390625, -9.6484375, -2.8271484375, 0.3893129825592041, 1.9541984796524048, 5.343511581420898, 5.25, -34.650001525878906, -77.0999984741211, 274243168.0
77359.0, 86649.0, 390.0, -2.51953125, -9.7900390625, -2.7978515625, -1.5190839767456055, -1.14503812789917, 1.0687023401260376, 7.050000190734863, -36.29999923706055, -77.0999984741211, 274253920.0
77355.0, 86633.0, 373.0, -2.34375, -9.7021484375, -2.7783203125, 2.2061069011688232, -1.1832060813903809, 0.9618320465087891, 7.050000190734863, -36.29999923706055, -77.0999984741211, 274257824.0
77341.0, 86604.0, 374.0, -2.451171875, -9.7265625, -2.7685546875, -1.893129825592041, 2.6259541511535645, 0.0, 7.949999809265137, -37.20000076293945, -75.1500015258789, 274268544.0
77314.0, 86538.0, 373.0, -2.4609375, -9.775390625, -2.9248046875, -3.14503812789917, 2.923664093017578, -6.786259651184082, 6.0, -36.599998474121094, -77.0999984741211, 274283200.0
77289.0, 86499.0, 379.0, -2.314453125, -10.01953125, -2.8173828125, -4.1984734535217285, 1.3511450290679932, -6.160305500030518, 6.599999904632568, -36.900001525878906, -78.0, 274297856.0
77286.0, 86483.0, 365.0, -2.2216796875, -10.33203125, -2.75390625, -5.488549709320068, 2.679389238357544, -7.076335906982422, 6.599999904632568, -36.900001525878906, -78.0, 274302720.0
77285.0, 86476.0, 375.0, -2.1337890625, -10.361328125, -2.55859375, -2.7022900581359863, 0.8244274854660034, -3.328244209289551, 6.900000095367432, -38.400001525878906, -77.69999694824219, 274313472.0
77280.0, 86472.0, 370.0, -2.24609375, -10.1416015625, -2.412109375, -9.656488418579102, 4.442748069763184, -9.213740348815918, 5.699999809265137, -37.79999923706055, -78.1500015258789, 274328128.0
77280.0, 86462.0, 367.0, -2.3681640625, -10.21484375, -2.451171875, -7.007633686065674, 6.213740348815918, -8.633587837219238, 5.699999809265137, -37.79999923706055, -78.1500015258789, 274332992.0
77276.0, 86459.0, 379.0, -2.16796875, -10.1904296875, -2.4267578125, -16.366413116455078, 7.648855209350586, -9.473282814025879, 6.150000095367432, -37.650001525878906, -78.75, 274343744.0
77272.0, 86468.0, 367.0, -2.158203125, -10.283203125, -2.5390625, -15.854962348937988, 7.969465732574463, -10.305343627929688, 6.150000095367432, -37.650001525878906, -78.75, 274347648.0
77277.0, 86475.0, 372.0, -2.060546875, -10.2978515625, -2.8271484375, -15.312976837158203, 7.122137546539307, -6.862595558166504, 5.699999809265137, -36.599998474121094, -78.1500015258789, 274358400.0
77284.0, 86479.0, 368.0, -1.9921875, -10.5078125, -3.076171875, -15.366412162780762, 4.083969593048096, -0.5267175436019897, 5.25, -37.04999923706055, -81.44999694824219, 274387680.0
77285.0, 86487.0, 357.0, -2.080078125, -10.46875, -3.02734375, -9.679388999938965, 2.0610687732696533, 3.389312982559204, 5.25, -37.04999923706055, -81.44999694824219, 274393568.0
77286.0, 86506.0, 372.0, -1.9287109375, -10.4296875, -3.0712890625, -11.297710418701172, 1.496183156967163, 1.8854961395263672, 4.949999809265137, -38.099998474121094, -81.1500015258789, 274403328.0
77290.0, 86516.0, 370.0, -2.0361328125, -10.2587890625, -3.02734375, -12.809160232543945, 2.7328243255615234, 5.8015265464782715, 4.949999809265137, -38.099998474121094, -81.1500015258789, 274417984.0
77299.0, 86540.0, 378.0, -2.12890625, -9.94140625, -3.0126953125, -4.6259541511535645, -0.732824444770813, 4.847328186035156, 6.0, -38.099998474121094, -79.6500015258789, 274432608.0
77312.0, 86556.0, 373.0, -2.177734375, -9.8974609375, -2.94921875, -3.755725145339966, 3.244274854660034, 4.4809160232543945, 5.25, -38.099998474121094, -81.1500015258789, 274448256.0
77317.0, 86561.0, 370.0, -2.16796875, -9.9560546875, -2.9638671875, -3.2671756744384766, 1.5648854970932007, 1.9694656133651733, 6.150000095367432, -38.70000076293945, -81.30000305175781, 274453120.0
77314.0, 86561.0, 374.0, -2.08984375, -9.873046875, -2.919921875, -5.0, 6.152671813964844, 0.3206107020378113, 5.849999904632568, -37.95000076293945, -80.55000305175781, 274463872.0
77317.0, 86577.0, 368.0, -2.1533203125, -9.833984375, -2.9052734375, -4.488549709320068, 2.0229008197784424, 0.7251908183097839, 5.849999904632568, -37.95000076293945, -80.55000305175781, 274467776.0
77320.0, 86576.0, 381.0, -2.2265625, -9.7705078125, -2.958984375, -6.870229244232178, 3.183206081390381, 0.9618320465087891, 5.400000095367432, -39.150001525878906, -80.55000305175781, 274478528.0
77320.0, 86584.0, 370.0, -2.32421875, -9.8291015625, -2.841796875, -8.938931465148926, -0.2671755850315094, -0.3129771053791046, 6.75, -37.349998474121094, -80.69999694824219, 274493152.0
77321.0, 86590.0, 375.0, -2.216796875, -9.912109375, -2.79296875, -7.603053569793701, 6.5190839767456055, -2.5877861976623535, 6.75, -37.349998474121094, -80.69999694824219, 274498048.0
77323.0, 86597.0, 377.0, -2.32421875, -9.7900390625, -2.9833984375, -9.442748069763184, 0.9312977194786072, -1.0076335668563843, 5.25, -38.099998474121094, -81.1500015258789, 274508800.0
77318.0, 86598.0, 370.0, -2.3388671875, -9.7216796875, -3.193359375, -7.3740458488464355, 4.450381755828857, -4.061068534851074, 5.699999809265137, -39.0, -80.69999694824219, 274513664.0
77329.0, 86608.0, 374.0, -2.216796875, -9.833984375, -3.1787109375, -9.412213325500488, 3.038167953491211, -3.3740458488464355, 6.0, -39.75, -80.69999694824219, 274523424.0
77328.0, 86611.0, 374.0, -2.138671875, -10.048828125, -3.173828125, -3.351145029067993, 3.0534350872039795, -3.1526718139648438, 5.400000095367432, -38.400001525878906, -80.55000305175781, 274538080.0
77334.0, 86609.0, 376.0, -1.923828125, -10.17578125, -3.22265625, 3.862595319747925, -0.9847328066825867, 1.122137427330017, 4.349999904632568, -39.150001525878906, -82.05000305175781, 274552736.0
77337.0, 86625.0, 370.0, -1.962890625, -10.29296875, -3.3642578125, -0.15267175436019897, 0.694656491279602, 1.305343508720398, 4.349999904632568, -39.150001525878906, -82.05000305175781, 274557632.0
77342.0, 86639.0, 372.0, -1.962890625, -10.2099609375, -3.4423828125, -3.4503817558288574, 1.6412214040756226, -0.11450381577014923, 5.400000095367432, -38.400001525878906, -81.30000305175781, 274568352.0
77350.0, 86652.0, 376.0, -1.943359375, -10.0634765625, -3.251953125, -2.3816792964935303, -0.6488549709320068, 1.106870174407959, 4.199999809265137, -38.54999923706055, -81.44999694824219, 274583008.0
77354.0, 86659.0, 377.0, -2.03125, -9.8828125, -2.9638671875, 1.9923664331436157, -5.809160232543945, 1.5267175436019897, 5.25, -38.099998474121094, -81.44999694824219, 274597664.0
77355.0, 86670.0, 375.0, -2.138671875, -10.068359375, -2.9052734375, 0.17557251453399658, -2.2748091220855713, 0.2748091518878937, 4.199999809265137, -36.29999923706055, -81.1500015258789, 274602528.0
77360.0, 86681.0, 375.0, -2.1533203125, -9.9365234375, -2.7978515625, 2.5572519302368164, -2.9160306453704834, -1.0839694738388062, 5.099999904632568, -38.400001525878906, -81.30000305175781, 274613280.0
77360.0, 86694.0, 376.0, -2.294921875, -10.068359375, -2.9296875, -0.9007633328437805, 1.3969465494155884, -2.114503860473633, 5.099999904632568, -38.400001525878906, -81.30000305175781, 274627936.0
77366.0, 86702.0, 382.0, -2.24609375, -10.01953125, -2.7880859375, 0.09160305559635162, -0.5877862572669983, -2.465648889541626, 5.25, -37.79999923706055, -81.9000015258789, 274632800.0
77369.0, 86707.0, 385.0, -2.177734375, -10.2490234375, -2.9052734375, -3.320610761642456, 1.7557251453399658, -3.931297779083252, 5.25, -37.79999923706055, -81.9000015258789, 274643552.0
77376.0, 86721.0, 380.0, -2.158203125, -10.3125, -2.8662109375, -4.70992374420166, -1.0534350872039795, 1.7633588314056396, 5.849999904632568, -37.650001525878906, -81.5999984741211, 274658208.0
77385.0, 86740.0, 384.0, -2.109375, -10.1708984375, -2.880859375, -4.938931465148926, 1.0534350872039795, 1.3358778953552246, 5.099999904632568, -36.45000076293945, -81.0, 274672864.0
77378.0, 86761.0, 382.0, -2.0458984375, -10.2587890625, -2.9931640625, -8.625954627990723, 3.8702290058135986, 1.465648889541626, 5.849999904632568, -36.900001525878906, -81.5999984741211, 274687488.0
77387.0, 86759.0, 382.0, -2.0849609375, -10.166015625, -2.958984375, -4.167938709259033, 2.6183207035064697, 2.114503860473633, 5.699999809265137, -37.04999923706055, -80.0999984741211, 274693344.0
77396.0, 86765.0, 387.0, -2.1630859375, -10.0439453125, -3.1640625, -5.404580116271973, -0.5572519302368164, 0.5343511700630188, 4.650000095367432, -38.400001525878906, -79.80000305175781, 274703136.0
77401.0, 86777.0, 379.0, -2.099609375, -9.9755859375, -3.1591796875, -7.5190839767456055, 0.23664122819900513, -0.6488549709320068, 4.650000095367432, -38.400001525878906, -79.80000305175781, 274708000.0
77406.0, 86793.0, 388.0, -2.1337890625, -9.9609375, -3.0224609375, -2.641221284866333, -2.5572519302368164, 2.1679389476776123, 4.650000095367432, -38.400001525878906, -79.80000305175781, 274718752.0
77405.0, 86799.0, 384.0, -2.1044921875, -10.0537109375, -3.076171875, -2.0, -3.3435113430023193, 1.7862595319747925, 5.25, -38.099998474121094, -80.4000015258789, 274723648.0
77412.0, 86807.0, 386.0, -2.1533203125, -9.90234375, -2.9296875, 0.7099236845970154, -3.1526718139648438, 0.6412214040756226, 6.599999904632568, -37.20000076293945, -79.80000305175781, 274733408.0
77410.0, 86814.0, 390.0, -2.3046875, -9.921875, -2.9150390625, 1.2824428081512451, 0.847328245639801, -2.221374034881592, 5.400000095367432, -37.650001525878906, -79.80000305175781, 274748032.0
77426.0, 86832.0, 391.0, -2.24609375, -9.9951171875, -2.8955078125, -0.05343511328101158, -1.8244274854660034, -2.435114622116089, 6.150000095367432, -36.900001525878906, -81.0, 274762688.0
77425.0, 86848.0, 392.0, -2.109375, -10.0341796875, -2.8271484375, 0.3435114622116089, -0.4580152630805969, -0.19083969295024872, 5.400000095367432, -36.45000076293945, -78.44999694824219, 274777344.0
77426.0, 86855.0, 389.0, -2.2265625, -10.078125, -2.7734375, -0.15267175436019897, 3.931297779083252, -4.152671813964844, 5.400000095367432, -36.45000076293945, -78.44999694824219, 274779296.0
77426.0, 86858.0, 385.0, -2.275390625, -10.1806640625, -2.939453125, -0.7633587718009949, 2.3435113430023193, -0.6717557311058044, 6.599999904632568, -37.650001525878906, -79.80000305175781, 274793952.0
77439.0, 86872.0, 391.0, -2.099609375, -10.0830078125, -2.9736328125, -6.404580116271973, 3.0152671337127686, -1.0839694738388062, 6.599999904632568, -37.650001525878906, -79.80000305175781, 274807616.0
77442.0, 86872.0, 386.0, -2.2802734375, -10.185546875, -2.998046875, -3.0916030406951904, 0.1679389327764511, 1.5267175436019897, 7.349999904632568, -37.650001525878906, -79.80000305175781, 274813472.0
77429.0, 86861.0, 388.0, -2.2216796875, -10.09765625, -3.0078125, -5.114503860473633, 4.045801639556885, -0.7099236845970154, 6.599999904632568, -36.45000076293945, -78.75, 274823232.0
77429.0, 86849.0, 385.0, -2.1240234375, -10.107421875, -3.076171875, -3.6564886569976807, -2.748091697692871, 2.7404580116271973, 6.900000095367432, -35.25, -78.75, 274837888.0
77423.0, 86826.0, 378.0, -2.1875, -9.9560546875, -2.9248046875, -3.648854970932007, 3.2748091220855713, -1.2519084215164185, 5.400000095367432, -37.650001525878906, -79.5, 274852544.0
77412.0, 86813.0, 386.0, -2.265625, -9.86328125, -3.2177734375, 0.19083969295024872, 1.9847328662872314, 3.320610761642456, 5.400000095367432, -37.650001525878906, -79.5, 274854496.0
77394.0, 86771.0, 380.0, -2.2265625, -9.8388671875, -2.9150390625, -5.099236488342285, 4.5190839767456055, -0.2748091518878937, 5.400000095367432, -36.900001525878906, -78.44999694824219, 274868160.0
77391.0, 86762.0, 386.0, -2.16796875, -9.7802734375, -2.8466796875, -0.9160305261611938, 1.9160305261611938, 1.5954198837280273, 5.400000095367432, -36.900001525878906, -78.44999694824219, 274873056.0
77379.0, 86721.0, 387.0, -2.28515625, -9.8193359375, -2.9541015625, 0.6183205842971802, 0.9312977194786072, -0.23664122819900513, 4.949999809265137, -36.599998474121094, -79.3499984741211, 274883776.0
77370.0, 86705.0, 382.0, -2.2509765625, -10.0146484375, -2.919921875, 0.572519063949585, 0.09923664480447769, -3.4122138023376465, 4.949999809265137, -36.599998474121094, -79.3499984741211, 274888672.0
77363.0, 86684.0, 385.0, -2.2412109375, -10.078125, -3.0078125, 1.5114504098892212, -1.0076335668563843, -0.11450381577014923, 6.300000190734863, -38.54999923706055, -78.5999984741211, 274898432.0
77352.0, 86641.0, 384.0, -2.060546875, -10.1123046875, -2.9345703125, -3.183206081390381, 3.137404680252075, -1.7786259651184082, 6.0, -36.599998474121094, -78.9000015258789, 274913088.0
77340.0, 86622.0, 379.0, -2.119140625, -10.234375, -2.958984375, -0.1450381726026535, 3.137404680252075, -3.885496139526367, 5.849999904632568, -36.0, -78.0, 274927744.0
77329.0, 86603.0, 380.0, -2.2119140625, -10.107421875, -2.9443359375, 2.358778715133667, 2.0458016395568848, 0.007633587811142206, 6.150000095367432, -35.70000076293945, -79.5, 274942368.0
77326.0, 86595.0, 385.0, -2.080078125, -10.224609375, -2.9736328125, -0.9160305261611938, 0.9389312863349915, 0.18320611119270325, 6.150000095367432, -35.70000076293945, -79.5, 274944320.0
77313.0, 86583.0, 379.0, -1.9873046875, -10.0244140625, -2.9443359375, 2.862595319747925, 1.572519063949585, 1.3587785959243774, 7.050000190734863, -36.599998474121094, -80.4000015258789, 274958016.0
77314.0, 86588.0, 366.0, -2.20703125, -9.9560546875, -2.9541015625, -1.038167953491211, 1.3740458488464355, -2.8473281860351562, 7.050000190734863, -36.599998474121094, -80.4000015258789, 274963872.0
77311.0, 86587.0, 373.0, -2.1630859375, -10.087890625, -2.9296875, -1.3587785959243774, 4.442748069763184, -2.1908397674560547, 6.150000095367432, -36.900001525878906, -78.44999694824219, 274973632.0
77316.0, 86588.0, 371.0, -2.2509765625, -10.048828125, -2.919921875, 0.8778625726699829, 0.0, -3.5190839767456055, 5.849999904632568, -36.0, -78.75, 274987296.0
77316.0, 86573.0, 375.0, -2.12890625, -10.078125, -2.9443359375, -0.4885496199131012, 4.900763511657715, -6.312977313995361, 5.699999809265137, -36.29999923706055, -79.3499984741211, 274989248.0
77312.0, 86587.0, 377.0, -2.16796875, -10.078125, -2.9833984375, 2.2748091220855713, 1.5190839767456055, -4.381679534912109, 5.400000095367432, -37.650001525878906, -80.55000305175781, 275002944.0
77315.0, 86582.0, 368.0, -2.2119140625, -10.087890625, -2.9833984375, 2.969465732574463, -0.1450381726026535, -2.3129770755767822, 5.400000095367432, -37.650001525878906, -80.55000305175781, 275008800.0
77303.0, 86578.0, 370.0, -2.197265625, -10.0341796875, -2.9345703125, -2.7404580116271973, 1.0, -3.7938930988311768, 6.900000095367432, -37.20000076293945, -80.25, 275018560.0
77308.0, 86596.0, 372.0, -2.2265625, -10.1318359375, -3.0224609375, -2.5267176628112793, 3.6564886569976807, -4.954198360443115, 6.900000095367432, -37.20000076293945, -80.25, 275033216.0
77318.0, 86605.0, 370.0, -2.119140625, -10.0732421875, -3.02734375, -1.4045801162719727, 1.3664121627807617, -4.549618244171143, 3.75, -37.04999923706055, -79.6500015258789, 275047840.0
77314.0, 86608.0, 375.0, -2.01171875, -9.8779296875, -2.958984375, 2.778625965118408, 3.4732823371887207, -3.9160306453704834, 3.75, -37.04999923706055, -79.6500015258789, 275048832.0
77318.0, 86619.0, 381.0, -1.8505859375, -10.05859375, -2.998046875, -0.7786259651184082, 0.5038167834281921, -3.183206081390381, 5.400000095367432, -36.0, -79.05000305175781, 275063488.0
77322.0, 86620.0, 377.0, -1.943359375, -10.0732421875, -2.9638671875, -3.4503817558288574, 5.358778476715088, -4.885496139526367, 4.949999809265137, -35.849998474121094, -80.69999694824219, 275078112.0
77326.0, 86628.0, 379.0, -1.953125, -10.1953125, -2.91015625, -1.8320610523223877, 0.580152690410614, -5.106870174407959, 4.949999809265137, -35.849998474121094, -80.69999694824219, 275079104.0
77328.0, 86637.0, 382.0, -2.0166015625, -10.2783203125, -2.9296875, -1.8167939186096191, 3.2671756744384766, -5.900763511657715, 4.650000095367432, -36.0, -79.80000305175781, 275093760.0
77329.0, 86632.0, 375.0, -1.904296875, -10.5224609375, -2.98828125, -2.2290077209472656, 4.076335906982422, -1.1297709941864014, 4.650000095367432, -36.0, -79.80000305175781, 275098624.0
77328.0, 86641.0, 376.0, -2.12890625, -10.2880859375, -2.98828125, 0.7022900581359863, 2.5877861976623535, 0.11450381577014923, 2.549999952316284, -36.0, -79.80000305175781, 275108384.0
77322.0, 86646.0, 377.0, -2.109375, -10.1220703125, -2.9443359375, 2.251908302307129, -0.9847328066825867, 2.7022900581359863, 3.75, -35.099998474121094, -78.9000015258789, 275122080.0
77331.0, 86652.0, 376.0, -2.0654296875, -10.0732421875, -2.9931640625, 0.3358778655529022, 1.9465649127960205, 1.0992366075515747, 6.300000190734863, -37.79999923706055, -79.3499984741211, 275137696.0
77335.0, 86669.0, 380.0, -2.041015625, -10.078125, -2.998046875, -1.9312976598739624, 2.2290077209472656, 0.8931297659873962, 5.400000095367432, -38.70000076293945, -78.44999694824219, 275152352.0
77348.0, 86684.0, 374.0, -2.119140625, -10.0634765625, -2.724609375, 1.2137404680252075, 3.2977099418640137, -1.1145038604736328, 3.75, -35.849998474121094, -78.9000015258789, 275172864.0
77349.0, 86683.0, 380.0, -1.9873046875, -10.078125, -2.8271484375, -1.961832046508789, 1.5954198837280273, 1.6335878372192383, 4.650000095367432, -35.70000076293945, -79.05000305175781, 275182624.0
77350.0, 86690.0, 385.0, -2.0947265625, -10.1953125, -2.7685546875, -6.114503860473633, 3.961832046508789, -1.732824444770813, 3.5999999046325684, -37.650001525878906, -80.25, 275198240.0
77350.0, 86695.0, 388.0, -2.0068359375, -10.1708984375, -2.734375, -0.15267175436019897, 2.030534267425537, -0.9618320465087891, 3.5999999046325684, -37.650001525878906, -80.25, 275199232.0
77357.0, 86707.0, 390.0, -1.953125, -10.2685546875, -2.8466796875, -6.877862453460693, 1.9083969593048096, 0.732824444770813, 6.0, -35.54999923706055, -79.6500015258789, 275213856.0
77353.0, 86705.0, 379.0, -2.0703125, -10.3125, -2.9150390625, -2.496183156967163, 0.2671755850315094, 2.6564886569976807, 4.650000095367432, -36.45000076293945, -79.80000305175781, 275218752.0
77355.0, 86724.0, 385.0, -1.8603515625, -10.2099609375, -2.919921875, -1.0534350872039795, 1.8091603517532349, 4.847328186035156, 4.949999809265137, -35.54999923706055, -79.6500015258789, 275228512.0
77355.0, 86733.0, 381.0, -1.9140625, -10.1416015625, -2.900390625, 0.7786259651184082, 1.5801526308059692, 0.3435114622116089, 4.949999809265137, -35.54999923706055, -79.6500015258789, 275243168.0
77364.0, 86729.0, 391.0, -2.0458984375, -10.1513671875, -2.8271484375, -1.3282443284988403, -0.442748099565506, 2.007633686065674, 4.949999809265137, -35.54999923706055, -79.6500015258789, 275244128.0
77370.0, 86751.0, 386.0, -1.982421875, -10.1025390625, -2.958984375, -3.396946668624878, 1.2824428081512451, -0.6106870174407959, 3.75, -36.599998474121094, -77.55000305175781, 275258784.0
77372.0, 86748.0, 383.0, -2.1240234375, -10.048828125, -2.79296875, -0.7862595319747925, 1.7786259651184082, -0.49618321657180786, 3.75, -36.599998474121094, -77.55000305175781, 275263680.0
77369.0, 86761.0, 380.0, -2.080078125, -10.078125, -2.8564453125, -4.5190839767456055, 1.6870229244232178, -1.8244274854660034, 3.75, -37.04999923706055, -77.55000305175781, 275273440.0
77379.0, 86770.0, 386.0, -2.1240234375, -10.1513671875, -2.9541015625, -1.160305380821228, 2.3816792964935303, -0.35114502906799316, 3.9000000953674316, -36.900001525878906, -79.80000305175781, 275288096.0
77376.0, 86781.0, 389.0, -2.1435546875, -10.263671875, -2.9345703125, -1.9389313459396362, -0.42748090624809265, 0.9465649127960205, 4.650000095367432, -36.0, -79.80000305175781, 275302720.0
77383.0, 86788.0, 386.0, -2.0751953125, -10.2294921875, -2.939453125, -1.9541984796524048, 1.5190839767456055, -0.8931297659873962, 4.650000095367432, -36.0, -79.80000305175781, 275304672.0
77384.0, 86800.0, 388.0, -2.0166015625, -10.244140625, -2.7978515625, -2.213740348815918, 1.9541984796524048, 0.38167938590049744, 5.099999904632568, -35.25, -79.5, 275318368.0
77388.0, 86810.0, 387.0, -2.080078125, -10.224609375, -2.9736328125, -0.1679389327764511, -0.572519063949585, 4.671755790710449, 5.099999904632568, -35.25, -79.5, 275332992.0
77391.0, 86818.0, 379.0, -2.060546875, -10.2001953125, -2.978515625, -2.1984732151031494, 3.923664093017578, 1.1832060813903809, 5.099999904632568, -35.25, -79.5, 275333984.0
77400.0, 86833.0, 391.0, -2.060546875, -10.0830078125, -2.841796875, 0.49618321657180786, -1.5496183633804321, 2.603053331375122, 4.650000095367432, -37.20000076293945, -77.69999694824219, 275348640.0
77409.0, 86844.0, 385.0, -2.138671875, -10.0341796875, -2.96875, -2.603053331375122, 2.2977099418640137, 0.6717557311058044, 6.75, -37.349998474121094, -78.1500015258789, 275362304.0
77413.0, 86853.0, 389.0, -2.177734375, -10.185546875, -2.87109375, -5.442748069763184, 4.702290058135986, -0.2748091518878937, 6.150000095367432, -37.20000076293945, -78.0, 275364256.0
77411.0, 86865.0, 396.0, -2.2705078125, -10.1123046875, -2.83203125, -3.8320610523223877, 2.5648856163024902, -0.572519063949585, 4.949999809265137, -35.849998474121094, -77.55000305175781, 275377920.0
77417.0, 86874.0, 386.0, -2.1826171875, -10.1171875, -2.8173828125, -0.2671755850315094, 2.1526718139648438, -1.85496187210083, 4.949999809265137, -35.849998474121094, -77.55000305175781, 275383776.0
77424.0, 86882.0, 393.0, -1.89453125, -10.01953125, -2.861328125, -4.56488561630249, 2.9847328662872314, -1.6183205842971802, 6.0, -36.29999923706055, -78.1500015258789, 275393568.0
77435.0, 86905.0, 390.0, -2.05078125, -10.078125, -2.8369140625, -2.0229008197784424, 4.29007625579834, 0.885496199131012, 4.650000095367432, -37.95000076293945, -78.44999694824219, 275422848.0
77437.0, 86912.0, 393.0, -2.109375, -9.990234375, -2.919921875, -0.3129771053791046, 1.2824428081512451, -1.4732824563980103, 5.400000095367432, -37.650001525878906, -78.75, 275437504.0
77431.0, 86907.0, 397.0, -2.1044921875, -10.107421875, -2.94921875, 0.15267175436019897, 2.4427480697631836, -2.213740348815918, 5.400000095367432, -37.650001525878906, -78.75, 275439456.0
77428.0, 86894.0, 392.0, -2.0263671875, -10.302734375, -2.7978515625, 0.8931297659873962, 2.7251908779144287, -0.7557252049446106, 6.75, -37.04999923706055, -79.6500015258789, 275453120.0
77417.0, 86877.0, 389.0, -2.0947265625, -10.3369140625, -2.87109375, -1.6870229244232178, 0.6488549709320068, -0.6641221642494202, 6.75, -37.04999923706055, -79.6500015258789, 275458016.0
77419.0, 86865.0, 391.0, -2.08984375, -10.1611328125, -2.734375, 0.23664122819900513, 0.0, 3.9007632732391357, 6.75, -37.04999923706055, -79.6500015258789, 275468736.0
77409.0, 86850.0, 386.0, -2.0263671875, -10.13671875, -2.7685546875, -3.4732823371887207, -1.5190839767456055, 0.7022900581359863, 5.25, -36.29999923706055, -77.8499984741211, 275473632.0
77409.0, 86830.0, 389.0, -2.177734375, -10.302734375, -2.705078125, -5.251908302307129, 2.14503812789917, -0.8625954389572144, 5.25, -36.29999923706055, -77.8499984741211, 275483392.0
77388.0, 86783.0, 394.0, -2.1435546875, -9.990234375, -2.67578125, -3.679389238357544, 3.85496187210083, -2.068702220916748, 5.400000095367432, -36.900001525878906, -76.94999694824219, 275498048.0
77383.0, 86776.0, 389.0, -2.0166015625, -10.068359375, -2.685546875, -6.877862453460693, 0.2442748099565506, -0.9007633328437805, 5.400000095367432, -36.900001525878906, -76.94999694824219, 275499008.0
77371.0, 86748.0, 389.0, -2.1337890625, -10.05859375, -2.8857421875, -0.32824426889419556, 2.3816792964935303, 0.25190839171409607, 4.199999809265137, -36.29999923706055, -78.1500015258789, 275513664.0
77356.0, 86720.0, 391.0, -2.119140625, -10.0341796875, -2.8857421875, -1.9083969593048096, 4.259541988372803, -2.2290077209472656, 4.199999809265137, -36.29999923706055, -78.1500015258789, 275514656.0
77332.0, 86690.0, 388.0, -2.0947265625, -9.94140625, -2.8076171875, 2.6183207035064697, 1.4427480697631836, 0.9618320465087891, 3.299999952316284, -38.400001525878906, -76.6500015258789, 275528320.0
77340.0, 86678.0, 382.0, -1.923828125, -9.9853515625, -2.7392578125, 0.5114504098892212, 2.2977099418640137, -3.038167953491211, 3.299999952316284, -38.400001525878906, -76.6500015258789, 275534176.0
77330.0, 86671.0, 388.0, -2.138671875, -9.94140625, -2.8369140625, -0.007633587811142206, 4.167938709259033, -3.5190839767456055, 3.450000047683716, -37.349998474121094, -78.5999984741211, 275542976.0
77329.0, 86659.0, 386.0, -2.20703125, -9.9365234375, -2.8564453125, 3.358778715133667, 0.442748099565506, -1.7786259651184082, 3.450000047683716, -37.349998474121094, -78.5999984741211, 275544928.0
77323.0, 86654.0, 384.0, -1.9775390625, -10.1806640625, -2.7490234375, -2.7633588314056396, 1.9847328662872314, -3.610687017440796, 3.450000047683716, -37.349998474121094, -78.5999984741211, 275558592.0
77318.0, 86636.0, 382.0, -1.9775390625, -10.3173828125, -2.9052734375, -2.0992367267608643, 0.6030534505844116, -0.39694657921791077, 4.349999904632568, -36.900001525878906, -78.75, 275572256.0
77314.0, 86639.0, 376.0, -1.9970703125, -10.3369140625, -2.939453125, -3.931297779083252, 4.106870174407959, -0.8625954389572144, 4.349999904632568, -36.900001525878906, -78.75, 275574208.0
77310.0, 86640.0, 389.0, -2.041015625, -10.2734375, -2.8759765625, -1.801526665687561, -1.801526665687561, 1.4809160232543945, 2.8499999046325684, -36.0, -77.69999694824219, 275587904.0
77309.0, 86632.0, 384.0, -1.9921875, -10.3173828125, -2.841796875, 4.832061290740967, 0.8625954389572144, -0.7175572514533997, 2.8499999046325684, -36.0, -77.69999694824219, 275589856.0
77314.0, 86638.0, 380.0, -2.0947265625, -10.498046875, -2.7294921875, -2.007633686065674, 3.458015203475952, 1.7938930988311768, 4.949999809265137, -36.29999923706055, -78.1500015258789, 275603520.0
77309.0, 86638.0, 385.0, -2.0947265625, -10.0732421875, -2.763671875, -2.541984796524048, 0.32824426889419556, 2.4732823371887207, 4.949999809265137, -36.599998474121094, -78.1500015258789, 275618176.0
77310.0, 86640.0, 383.0, -2.021484375, -10.029296875, -2.75390625, -1.3129770755767822, 4.14503812789917, 0.8396946787834167, 4.949999809265137, -36.599998474121094, -78.1500015258789, 275619136.0
77313.0, 86648.0, 384.0, -2.01171875, -9.90234375, -2.6318359375, -0.9083969593048096, 4.282442569732666, -2.3435113430023193, 4.199999809265137, -36.599998474121094, -78.1500015258789, 275633792.0
77317.0, 86650.0, 384.0, -1.97265625, -10.0048828125, -2.6123046875, -3.328244209289551, 5.496183395385742, -3.6259541511535645, 3.9000000953674316, -36.0, -78.0, 275647456.0
77307.0, 86663.0, 384.0, -2.080078125, -10.126953125, -2.744140625, -0.5419847369194031, 4.061068534851074, -4.229007720947266, 4.349999904632568, -35.70000076293945, -78.75, 275663072.0
77313.0, 86657.0, 384.0, -2.05078125, -9.8681640625, -2.7685546875, -2.0229008197784424, 0.6106870174407959, -2.3129770755767822, 4.349999904632568, -35.70000076293945, -78.75, 275665024.0
77324.0, 86671.0, 381.0, -1.904296875, -10.2197265625, -3.02734375, -3.29007625579834, 5.885496139526367, -3.3740458488464355, 3.5999999046325684, -35.70000076293945, -78.0, 275678720.0
77330.0, 86681.0, 379.0, -1.93359375, -10.25390625, -3.1005859375, -4.641221523284912, 5.664122104644775, -5.786259651184082, 3.5999999046325684, -35.70000076293945, -78.0, 275679680.0
77328.0, 86686.0, 388.0, -1.8115234375, -10.37109375, -3.232421875, 2.5190839767456055, 2.1297709941864014, 0.6412214040756226, 5.25, -35.54999923706055, -77.0999984741211, 275693344.0
77324.0, 86693.0, 384.0, -1.8603515625, -10.3564453125, -3.28125, 1.801526665687561, -0.7480915784835815, 2.6870229244232178, 4.199999809265137, -36.29999923706055, -77.55000305175781, 275707040.0
77332.0, 86706.0, 383.0, -1.8896484375, -10.2099609375, -3.1298828125, 1.0229008197784424, 0.28244274854660034, 1.801526665687561, 4.199999809265137, -35.099998474121094, -77.0999984741211, 275722656.0
77333.0, 86707.0, 379.0, -1.8310546875, -10.0048828125, -2.900390625, 7.488549709320068, -5.244274616241455, 3.14503812789917, 4.349999904632568, -36.0, -75.9000015258789, 275737312.0
77336.0, 86718.0, 384.0, -1.943359375, -10.087890625, -2.9833984375, 4.488549709320068, -2.610687017440796, 1.0, 4.349999904632568, -36.0, -75.9000015258789, 275739264.0
77332.0, 86722.0, 382.0, -2.12890625, -10.09765625, -2.490234375, 4.793893337249756, -0.8320610523223877, 0.1221374049782753, 4.5, -33.599998474121094, -76.3499984741211, 275768544.0
77334.0, 86717.0, 379.0, -2.1484375, -9.9853515625, -2.34375, -0.5267175436019897, -2.9389312267303467, -2.778625965118408, 4.5, -35.54999923706055, -75.5999984741211, 275783200.0
77339.0, 86735.0, 382.0, -2.2802734375, -10.09765625, -2.3974609375, 0.5648854970932007, -1.6412214040756226, -1.0076335668563843, 4.349999904632568, -33.29999923706055, -74.0999984741211, 275797856.0
77334.0, 86728.0, 375.0, -2.3291015625, -10.107421875, -2.333984375, 3.0229008197784424, -1.4503816366195679, -0.022900763899087906, 4.349999904632568, -33.29999923706055, -74.0999984741211, 275798816.0
77340.0, 86737.0, 381.0, -2.20703125, -10.1318359375, -2.40234375, -0.6106870174407959, 0.580152690410614, -1.2824428081512451, 5.25, -35.099998474121094, -75.30000305175781, 275813472.0
77341.0, 86740.0, 378.0, -2.001953125, -10.1806640625, -2.4267578125, -2.1908397674560547, 4.595419883728027, -0.8167939186096191, 6.900000095367432, -35.25, -72.5999984741211, 275828128.0
77346.0, 86748.0, 375.0, -1.9873046875, -10.37109375, -2.3583984375, -2.038167953491211, 1.8625954389572144, 0.38167938590049744, 6.900000095367432, -35.25, -72.5999984741211, 275829088.0
77354.0, 86745.0, 385.0, -1.89453125, -10.4443359375, -2.5341796875, -3.816793918609619, 4.687022686004639, -0.5419847369194031, 5.099999904632568, -34.5, -75.1500015258789, 275843744.0
77341.0, 86744.0, 382.0, -2.0654296875, -10.5126953125, -2.51953125, -2.610687017440796, 3.251908302307129, -1.8167939186096191, 5.099999904632568, -34.5, -75.1500015258789, 275844736.0
77346.0, 86756.0, 381.0, -1.962890625, -10.400390625, -2.734375, -3.389312982559204, 2.541984796524048, 2.0610687732696533, 5.099999904632568, -34.5, -75.1500015258789, 275858400.0
77354.0, 86763.0, 387.0, -1.953125, -10.146484375, -2.7392578125, -1.3587785959243774, 2.7633588314056396, 3.8015267848968506, 5.25, -34.349998474121094, -72.44999694824219, 275873056.0
77351.0, 86770.0, 385.0, -2.0361328125, -10.068359375, -2.6953125, -2.1984732151031494, 0.6335877776145935, 3.183206081390381, 5.25, -34.349998474121094, -72.44999694824219, 275874016.0
77356.0, 86766.0, 381.0, -2.001953125, -9.8095703125, -2.6318359375, -3.961832046508789, 2.8702290058135986, -2.0916030406951904, 5.849999904632568, -34.20000076293945, -73.6500015258789, 275888672.0
77368.0, 86787.0, 387.0, -2.12890625, -9.912109375, -2.646484375, -0.6030534505844116, -1.427480936050415, -1.5419847965240479, 7.5, -34.349998474121094, -74.55000305175781, 275903328.0
77366.0, 86804.0, 384.0, -2.109375, -9.9853515625, -2.666015625, -4.404580116271973, 3.7709922790527344, -4.3740458488464355, 5.849999904632568, -33.0, -74.4000015258789, 275917952.0
77373.0, 86816.0, 382.0, -1.85546875, -10.17578125, -2.5, -3.2290077209472656, 3.3435113430023193, -5.190839767456055, 4.349999904632568, -33.75, -74.4000015258789, 275932608.0
77379.0, 86831.0, 387.0, -2.080078125, -10.4248046875, -2.5830078125, -9.175572395324707, 4.778625965118408, -7.893129825592041, 4.349999904632568, -33.75, -74.4000015258789, 275947264.0
77382.0, 86836.0, 395.0, -1.9921875, -10.419921875, -2.5927734375, -9.282443046569824, 5.14503812789917, -4.893129825592041, 6.0, -33.599998474121094, -75.0, 275949216.0
77384.0, 86851.0, 387.0, -1.73828125, -10.478515625, -2.75390625, -7.41984748840332, 8.29007625579834, -3.1297709941864014, 4.650000095367432, -34.5, -75.1500015258789, 275962880.0
77382.0, 86843.0, 388.0, -1.8310546875, -10.5126953125, -2.79296875, -4.229007720947266, 7.931297779083252, -4.687022686004639, 4.650000095367432, -34.5, -75.1500015258789, 275964832.0
77382.0, 86848.0, 389.0, -2.16796875, -10.1220703125, -2.978515625, -9.625954627990723, 1.0152671337127686, 1.694656491279602, 4.199999809265137, -34.349998474121094, -74.25, 275978528.0
77400.0, 86867.0, 394.0, -1.8798828125, -10.1416015625, -2.7978515625, -6.473282337188721, 4.862595558166504, -2.8473281860351562, 4.199999809265137, -34.349998474121094, -74.25, 275993152.0
77393.0, 86881.0, 387.0, -1.8994140625, -10.029296875, -2.7197265625, -5.404580116271973, 2.778625965118408, -0.2748091518878937, 4.199999809265137, -34.349998474121094, -74.25, 275994144.0
77394.0, 86885.0, 389.0, -1.8359375, -10.1171875, -2.880859375, -8.396946907043457, 5.175572395324707, -1.3435114622116089, 4.199999809265137, -32.849998474121094, -75.0, 276008800.0
77399.0, 86891.0, 387.0, -1.8701171875, -10.087890625, -2.9541015625, -4.358778476715088, 1.6717556715011597, 2.389312982559204, 4.199999809265137, -32.849998474121094, -75.0, 276009760.0
77408.0, 86899.0, 386.0, -1.8798828125, -9.970703125, -2.9638671875, -3.2061069011688232, 4.732824325561523, -2.6259541511535645, 4.199999809265137, -34.650001525878906, -76.05000305175781, 276023424.0
77405.0, 86913.0, 386.0, -1.875, -9.990234375, -2.9150390625, -1.1374045610427856, -0.4122137427330017, -0.3358778655529022, 4.349999904632568, -34.20000076293945, -77.25, 276038080.0
77413.0, 86917.0, 383.0, -1.8994140625, -10.0146484375, -2.8759765625, -2.0, 4.488549709320068, -5.328244209289551, 4.5, -34.349998474121094, -77.0999984741211, 276039072.0
77406.0, 86914.0, 389.0, -1.9140625, -10.2783203125, -2.9541015625, -0.2748091518878937, -0.9236641526222229, -3.3129770755767822, 3.75, -32.400001525878906, -76.80000305175781, 276053696.0
77405.0, 86917.0, 393.0, -1.953125, -10.1171875, -2.7099609375, -1.427480936050415, -1.6641221046447754, 0.06106870248913765, 3.75, -32.400001525878906, -76.80000305175781, 276054688.0
77405.0, 86913.0, 388.0, -1.8310546875, -10.2587890625, -2.67578125, -0.5267175436019897, 3.9083969593048096, -2.1679389476776123, 3.0, -34.650001525878906, -76.80000305175781, 276068352.0
77396.0, 86893.0, 381.0, -2.001953125, -10.2978515625, -2.6025390625, 0.2442748099565506, 1.6259541511535645, -1.6183205842971802, 3.0, -34.650001525878906, -76.80000305175781, 276083008.0
77392.0, 86886.0, 386.0, -1.9970703125, -10.361328125, -2.67578125, -3.1984732151031494, 4.229007720947266, -1.3664121627807617, 3.0, -34.650001525878906, -76.80000305175781, 276083968.0
77387.0, 86861.0, 386.0, -2.021484375, -10.244140625, -2.6611328125, -1.3129770755767822, 4.3053436279296875, -2.0152671337127686, 2.0999999046325684, -32.54999923706055, -77.69999694824219, 276098624.0
77387.0, 86858.0, 384.0, -1.796875, -10.13671875, -2.6904296875, -3.6259541511535645, 4.167938709259033, -3.3129770755767822, 2.0999999046325684, -32.54999923706055, -77.69999694824219, 276099616.0
77376.0, 86814.0, 386.0, -1.8798828125, -10.185546875, -2.7783203125, -2.85496187210083, 2.641221284866333, -0.5419847369194031, 3.0, -33.900001525878906, -77.55000305175781, 276113280.0
77351.0, 86768.0, 384.0, -1.9775390625, -9.98046875, -2.802734375, -2.0152671337127686, 0.5190839767456055, -0.45038166642189026, 3.450000047683716, -35.099998474121094, -78.1500015258789, 276127936.0
77326.0, 86713.0, 383.0, -1.9775390625, -10.0244140625, -2.71484375, -3.2061069011688232, 0.4885496199131012, -0.12977099418640137, 3.0, -32.400001525878906, -77.55000305175781, 276143552.0
77325.0, 86694.0, 381.0, -1.93359375, -10.205078125, -2.900390625, -5.56488561630249, 3.778625965118408, -1.160305380821228, 3.0, -32.400001525878906, -77.55000305175781, 276144544.0
77313.0, 86671.0, 383.0, -1.9775390625, -10.2734375, -2.783203125, -3.9847328662872314, 2.5114502906799316, -0.9007633328437805, 2.25, -33.599998474121094, -76.3499984741211, 276158208.0
77302.0, 86649.0, 375.0, -1.923828125, -10.2392578125, -2.67578125, -3.6946566104888916, 2.572519063949585, -1.1374045610427856, 2.25, -33.599998474121094, -76.3499984741211, 276172864.0
77289.0, 86635.0, 373.0, -1.8994140625, -10.29296875, -2.734375, -5.099236488342285, 4.656488418579102, -0.5038167834281921, 2.8499999046325684, -33.29999923706055, -77.69999694824219, 276187488.0
77287.0, 86628.0, 376.0, -1.9482421875, -10.1318359375, -2.79296875, -0.9160305261611938, 0.8015267252922058, 0.06106870248913765, 2.8499999046325684, -33.29999923706055, -77.69999694824219, 276189440.0
77284.0, 86631.0, 376.0, -1.9091796875, -10.302734375, -2.822265625, -4.6259541511535645, -1.7938930988311768, -1.6793893575668335, 3.0, -33.900001525878906, -76.80000305175781, 276203136.0
77287.0, 86635.0, 376.0, -1.8603515625, -10.146484375, -2.8271484375, -1.6793893575668335, 0.8931297659873962, 2.931297779083252, 3.0, -33.900001525878906, -76.80000305175781, 276205088.0
77293.0, 86622.0, 373.0, -1.9189453125, -10.2197265625, -2.7734375, 0.06106870248913765, 2.4122138023376465, -0.290076345205307, 2.25, -35.849998474121094, -78.1500015258789, 276218752.0
77278.0, 86622.0, 376.0, -1.9677734375, -10.09765625, -2.8759765625, -6.458015441894531, 1.198473334312439, 2.183206081390381, 2.25, -35.849998474121094, -78.1500015258789, 276219712.0
77281.0, 86626.0, 373.0, -1.9287109375, -9.9462890625, -2.8369140625, -1.9465649127960205, 5.618320465087891, -3.541984796524048, 1.649999976158142, -33.150001525878906, -78.5999984741211, 276233408.0
77282.0, 86624.0, 378.0, -1.953125, -10.1513671875, -2.802734375, 1.9007633924484253, 3.0152671337127686, 0.8167939186096191, 3.0, -35.54999923706055, -78.5999984741211, 276248032.0
77284.0, 86633.0, 382.0, -1.845703125, -10.263671875, -2.9296875, -1.6030534505844116, 0.7099236845970154, 1.6717556715011597, 2.549999952316284, -36.0, -77.69999694824219, 276262688.0
77290.0, 86641.0, 373.0, -1.9287109375, -10.3466796875, -2.9150390625, -3.114503860473633, 2.007633686065674, 1.3511450290679932, 2.0999999046325684, -33.75, -76.94999694824219, 276277344.0
77284.0, 86641.0, 379.0, -1.8896484375, -10.146484375, -2.87109375, 0.6106870174407959, 2.1908397674560547, 1.5190839767456055, 2.0999999046325684, -33.75, -76.94999694824219, 276279296.0
77288.0, 86650.0, 379.0, -1.8896484375, -10.1953125, -2.861328125, -4.984732627868652, 2.7251908779144287, 1.2519084215164185, 3.0, -32.849998474121094, -77.55000305175781, 276292960.0
77289.0, 86655.0, 375.0, -1.81640625, -10.087890625, -2.9541015625, -6.396946430206299, 0.4122137427330017, -3.244274854660034, 3.0, -32.849998474121094, -77.55000305175781, 276294912.0
77291.0, 86657.0, 381.0, -1.8701171875, -10.21484375, -2.978515625, -6.893129825592041, 6.022900581359863, -0.442748099565506, 2.700000047683716, -34.650001525878906, -77.55000305175781, 276307616.0
77286.0, 86666.0, 373.0, -1.8798828125, -10.048828125, -2.9638671875, -1.6259541511535645, 0.30534350872039795, 3.0610687732696533, 1.7999999523162842, -33.29999923706055, -77.25, 276322272.0
77294.0, 86671.0, 380.0, -1.953125, -10.0341796875, -2.802734375, -4.946564674377441, 4.648855209350586, -0.04580152779817581, 1.7999999523162842, -33.29999923706055, -77.25, 276324224.0
77293.0, 86673.0, 382.0, -1.826171875, -10.126953125, -2.8515625, 0.09923664480447769, 0.9160305261611938, -1.0152671337127686, 3.450000047683716, -32.400001525878906, -76.80000305175781, 276337888.0
77300.0, 86678.0, 379.0, -1.8212890625, -10.0830078125, -2.919921875, -3.5648856163024902, 3.038167953491211, 1.3435114622116089, 3.450000047683716, -32.400001525878906, -76.80000305175781, 276339840.0
77293.0, 86681.0, 385.0, -1.884765625, -9.94140625, -2.7294921875, -4.1984734535217285, 1.9160305261611938, -3.29007625579834, 4.349999904632568, -33.29999923706055, -76.94999694824219, 276353504.0
77297.0, 86686.0, 379.0, -1.8115234375, -10.2880859375, -2.744140625, -1.5954198837280273, -0.6106870174407959, -0.038167938590049744, 3.0, -33.900001525878906, -78.9000015258789, 276368160.0
77298.0, 86687.0, 380.0, -1.982421875, -10.29296875, -2.8759765625, -4.992366313934326, 5.85496187210083, 0.4580152630805969, 3.0, -33.900001525878906, -78.9000015258789, 276382816.0
77299.0, 86693.0, 380.0, -1.884765625, -10.2734375, -2.9052734375, -3.14503812789917, 2.5954198837280273, -0.694656491279602, 3.0, -35.54999923706055, -77.0999984741211, 276397472.0
77310.0, 86696.0, 380.0, -1.89453125, -10.1611328125, -2.9150390625, -2.5954198837280273, 4.900763511657715, -1.2519084215164185, 3.0, -35.54999923706055, -77.0999984741211, 276399424.0
77304.0, 86694.0, 381.0, -1.7626953125, -10.0537109375, -2.7734375, -5.366412162780762, 3.778625965118408, -0.221374049782753, 4.349999904632568, -33.75, -78.0, 276413088.0
77307.0, 86697.0, 382.0, -1.8701171875, -9.9169921875, -2.822265625, -3.0458016395568848, 1.496183156967163, 1.5801526308059692, 3.299999952316284, -33.75, -78.75, 276415040.0
77310.0, 86711.0, 386.0, -1.9677734375, -9.90234375, -2.98828125, -1.7862595319747925, 1.587786316871643, -1.496183156967163, 2.549999952316284, -36.0, -79.05000305175781, 276428704.0
77305.0, 86706.0, 379.0, -1.8212890625, -10.048828125, -2.96875, -5.977099418640137, 2.328244209289551, -2.603053331375122, 2.549999952316284, -36.0, -79.05000305175781, 276429696.0
77317.0, 86713.0, 379.0, -1.97265625, -10.2294921875, -2.9345703125, -0.09160305559635162, 3.9389312267303467, -0.7633587718009949, 2.8499999046325684, -33.0, -78.75, 276443360.0
77310.0, 86712.0, 381.0, -1.8408203125, -10.3173828125, -2.978515625, -4.0916032791137695, 4.122137546539307, 2.679389238357544, 2.700000047683716, -33.900001525878906, -79.3499984741211, 276458016.0
77306.0, 86717.0, 382.0, -1.7919921875, -10.2685546875, -2.9345703125, -6.70992374420166, 3.3740458488464355, 4.3740458488464355, 2.700000047683716, -33.900001525878906, -79.3499984741211, 276459968.0
77303.0, 86727.0, 379.0, -1.8701171875, -10.2783203125, -3.0078125, -3.7404580116271973, 0.8015267252922058, 3.396946668624878, 2.700000047683716, -33.900001525878906, -79.3499984741211, 276473632.0
77315.0, 86725.0, 380.0, -1.7431640625, -10.4296875, -3.0908203125, -2.175572633743286, 0.572519063949585, 0.580152690410614, 2.0999999046325684, -33.75, -79.05000305175781, 276474624.0
77314.0, 86735.0, 379.0, -1.865234375, -10.146484375, -2.9248046875, -6.732824325561523, 0.35877862572669983, 5.137404441833496, 2.0999999046325684, -34.20000076293945, -79.05000305175781, 276488288.0
77319.0, 86739.0, 383.0, -2.0556640625, -9.8779296875, -2.958984375, -0.5648854970932007, 0.6412214040756226, 4.648855209350586, 1.649999976158142, -33.150001525878906, -77.55000305175781, 276502944.0
77318.0, 86744.0, 385.0, -1.7724609375, -9.98046875, -2.900390625, 2.8320610523223877, 1.6259541511535645, 4.900763511657715, 2.549999952316284, -35.25, -78.44999694824219, 276504896.0
77321.0, 86749.0, 380.0, -1.9921875, -9.8681640625, -2.861328125, -3.6641221046447754, 1.7862595319747925, -1.3740458488464355, 2.549999952316284, -34.20000076293945, -79.5, 276518560.0
77325.0, 86765.0, 379.0, -1.9140625, -9.990234375, -2.8271484375, -1.9007633924484253, 5.679389476776123, -3.4809160232543945, 2.0999999046325684, -34.5, -78.44999694824219, 276532224.0
77334.0, 86767.0, 382.0, -2.01171875, -10.0341796875, -2.7490234375, -4.0916032791137695, 2.419847249984741, 0.9389312863349915, 2.0999999046325684, -34.5, -78.44999694824219, 276534176.0
77329.0, 86765.0, 384.0, -2.03125, -10.2587890625, -2.7001953125, -4.549618244171143, -0.7786259651184082, -0.2748091518878937, 2.549999952316284, -34.5, -78.0, 276547840.0
77327.0, 86778.0, 384.0, -1.9189453125, -10.185546875, -2.8125, -1.7175573110580444, 0.6412214040756226, 0.10687022656202316, 2.549999952316284, -34.5, -78.0, 276549792.0
77326.0, 86780.0, 386.0, -1.9677734375, -10.185546875, -2.890625, -1.3129770755767822, 1.4198473691940308, 0.28244274854660034, 2.8499999046325684, -32.54999923706055, -78.75, 276563488.0
77337.0, 86791.0, 385.0, -1.640625, -10.4150390625, -3.0322265625, -4.152671813964844, 4.656488418579102, 1.8091603517532349, 2.700000047683716, -35.099998474121094, -77.0999984741211, 276578112.0
77342.0, 86797.0, 380.0, -1.77734375, -10.3857421875, -2.91015625, -5.076335906982422, 5.503816604614258, 0.7022900581359863, 2.700000047683716, -35.099998474121094, -77.0999984741211, 276580064.0
77347.0, 86809.0, 387.0, -1.796875, -10.2490234375, -3.046875, -6.297709941864014, 0.6793892979621887, 5.076335906982422, 1.7999999523162842, -33.75, -79.80000305175781, 276593760.0
77352.0, 86820.0, 388.0, -1.943359375, -10.166015625, -3.1201171875, -2.0, 1.5648854970932007, 1.694656491279602, 1.7999999523162842, -33.75, -79.80000305175781, 276608384.0
77363.0, 86835.0, 381.0, -2.03125, -10.0146484375, -2.9296875, -3.7022900581359863, 1.6412214040756226, 2.6946566104888916, 2.700000047683716, -35.099998474121094, -79.3499984741211, 276623040.0
77363.0, 86846.0, 383.0, -1.806640625, -10.009765625, -2.998046875, -5.1984734535217285, 1.14503812789917, 0.6335877776145935, 2.700000047683716, -35.099998474121094, -79.3499984741211, 276624992.0
77363.0, 86852.0, 383.0, -1.9189453125, -9.8095703125, -2.900390625, -4.534351348876953, 4.297709941864014, -2.8015267848968506, 2.8499999046325684, -33.75, -79.80000305175781, 276638656.0
77364.0, 86857.0, 377.0, -2.041015625, -9.9072265625, -2.7685546875, -1.9083969593048096, 3.435114622116089, -0.08396946638822556, 2.8499999046325684, -33.75, -79.80000305175781, 276639648.0
77375.0, 86870.0, 378.0, -2.0458984375, -9.8876953125, -2.7099609375, -8.09160327911377, 3.8091602325439453, -5.267175674438477, 2.0999999046325684, -35.25, -78.75, 276653312.0
77383.0, 86892.0, 378.0, -1.943359375, -10.1513671875, -2.8759765625, -5.770992279052734, 1.4503816366195679, -3.282442808151245, 1.2000000476837158, -33.599998474121094, -80.69999694824219, 276667968.0
77376.0, 86889.0, 383.0, -1.8603515625, -10.25390625, -2.71484375, -1.2213740348815918, 1.496183156967163, -4.259541988372803, 1.2000000476837158, -33.599998474121094, -80.69999694824219, 276669920.0
77386.0, 86896.0, 380.0, -1.9921875, -10.2490234375, -2.94921875, -1.267175555229187, 0.5954198241233826, -0.8625954389572144, 1.9500000476837158, -33.599998474121094, -80.0999984741211, 276683584.0
77384.0, 86895.0, 379.0, -1.826171875, -10.322265625, -2.861328125, 0.5419847369194031, 2.9160306453704834, -0.885496199131012, 1.9500000476837158, -33.599998474121094, -80.0999984741211, 276684576.0
77380.0, 86893.0, 381.0, -1.6796875, -10.4443359375, -2.8759765625, -6.557251930236816, 4.916030406951904, -1.5954198837280273, 1.9500000476837158, -33.599998474121094, -80.0999984741211, 276698240.0
77381.0, 86879.0, 384.0, -1.787109375, -10.224609375, -3.1103515625, -4.6946563720703125, 3.076335906982422, 4.503816604614258, 2.8499999046325684, -34.5, -79.80000305175781, 276712896.0
77356.0, 86837.0, 388.0, -1.748046875, -10.0048828125, -3.0126953125, -3.419847249984741, 3.1221373081207275, 2.030534267425537, 2.25, -36.29999923706055, -78.5999984741211, 276728512.0
77354.0, 86823.0, 380.0, -1.953125, -10.0390625, -3.193359375, -0.8549618124961853, -0.847328245639801, 4.0, 2.25, -36.29999923706055, -78.5999984741211, 276729504.0
77344.0, 86793.0, 381.0, -1.8505859375, -9.892578125, -3.0029296875, -4.6259541511535645, 3.748091697692871, 1.465648889541626, 1.0499999523162842, -35.25, -78.75, 276743168.0
77332.0, 86751.0, 380.0, -1.9287109375, -9.9267578125, -2.9833984375, -2.572519063949585, 2.7938930988311768, -0.2977099120616913, 1.2000000476837158, -35.54999923706055, -79.6500015258789, 276757824.0
77317.0, 86717.0, 376.0, -2.01171875, -10.009765625, -2.822265625, -1.587786316871643, -0.1450381726026535, 1.0610686540603638, 1.350000023841858, -34.5, -80.25, 276772448.0
77311.0, 86700.0, 379.0, -1.9921875, -9.970703125, -2.7197265625, -4.717557430267334, 2.068702220916748, -2.9083969593048096, 1.350000023841858, -34.5, -80.25, 276774400.0
77303.0, 86682.0, 379.0, -1.9775390625, -10.185546875, -2.9248046875, 0.8244274854660034, 1.6488549709320068, 2.1984732151031494, 2.549999952316284, -34.95000076293945, -79.80000305175781, 276788096.0
77299.0, 86680.0, 375.0, -2.0068359375, -10.1123046875, -2.978515625, -1.1908396482467651, 4.015267372131348, -2.2748091220855713, 2.549999952316284, -34.95000076293945, -79.80000305175781, 276790048.0
77296.0, 86670.0, 384.0, -1.9921875, -10.3173828125, -2.7978515625, -1.4122138023376465, 4.534351348876953, -0.47328245639801025, 2.0999999046325684, -35.25, -80.55000305175781, 276803712.0
77298.0, 86667.0, 380.0, -1.884765625, -10.25390625, -2.8125, -4.267175674438477, 2.717557191848755, -1.3816794157028198, 2.0999999046325684, -35.25, -80.55000305175781, 276804672.0
77295.0, 86665.0, 376.0, -1.748046875, -10.3759765625, -2.8759765625, -6.366412162780762, 3.70992374420166, 0.6030534505844116, 1.649999976158142, -34.650001525878906, -79.3499984741211, 276818368.0
77283.0, 86649.0, 373.0, -1.9677734375, -10.0634765625, -2.9248046875, -5.5190839767456055, 0.9312977194786072, 2.8473281860351562, 2.0999999046325684, -34.20000076293945, -81.0, 276832992.0
77288.0, 86650.0, 380.0, -1.8115234375, -10.0537109375, -2.861328125, -0.9007633328437805, 6.106870174407959, 0.885496199131012, 1.9500000476837158, -34.349998474121094, -79.6500015258789, 276848640.0
77289.0, 86653.0, 375.0, -1.9189453125, -10.21484375, -3.06640625, 0.022900763899087906, -0.28244274854660034, 2.6641221046447754, 1.9500000476837158, -34.349998474121094, -79.6500015258789, 276849600.0
77289.0, 86651.0, 371.0, -1.6943359375, -9.94140625, -2.9736328125, -6.748091697692871, 1.961832046508789, 0.32824426889419556, 2.700000047683716, -34.349998474121094, -80.4000015258789, 276863296.0
77284.0, 86648.0, 376.0, -1.93359375, -9.9462890625, -2.87109375, -1.8702290058135986, 5.259541988372803, -2.9541985988616943, 2.8499999046325684, -34.20000076293945, -79.80000305175781, 276877920.0
77288.0, 86657.0, 379.0, -1.7919921875, -10.17578125, -3.037109375, -4.030534267425537, 0.885496199131012, 4.29007625579834, 1.9500000476837158, -32.849998474121094, -80.4000015258789, 276892576.0
77294.0, 86663.0, 378.0, -1.884765625, -10.01953125, -2.8662109375, -5.160305500030518, 0.7862595319747925, -1.0229008197784424, 1.9500000476837158, -32.849998474121094, -80.4000015258789, 276907232.0
77293.0, 86677.0, 380.0, -1.8310546875, -10.1025390625, -3.046875, -2.748091697692871, 3.0152671337127686, -2.969465732574463, 2.25, -36.29999923706055, -80.0999984741211, 276909184.0
77298.0, 86682.0, 376.0, -1.796875, -10.0341796875, -2.978515625, -3.671755790710449, 3.9847328662872314, -2.3358778953552246, 2.25, -36.29999923706055, -80.0999984741211, 276922848.0
77298.0, 86686.0, 377.0, -1.884765625, -10.078125, -2.9931640625, -2.572519063949585, 0.8015267252922058, -3.7404580116271973, 2.25, -36.29999923706055, -80.0999984741211, 276924800.0
77296.0, 86688.0, 375.0, -1.845703125, -10.2001953125, -3.0615234375, -1.6870229244232178, 2.8778626918792725, 0.09923664480447769, 2.0999999046325684, -36.45000076293945, -79.80000305175781, 276938464.0
77300.0, 86697.0, 372.0, -1.7919921875, -10.1123046875, -3.0126953125, -0.5496183037757874, 0.5496183037757874, 1.2595419883728027, 1.7999999523162842, -33.75, -79.80000305175781, 276953120.0
77304.0, 86711.0, 380.0, -1.845703125, -10.1513671875, -3.1201171875, -3.358778715133667, -1.7633588314056396, 2.6335878372192383, 1.7999999523162842, -33.75, -79.80000305175781, 276955072.0
77312.0, 86727.0, 378.0, -2.001953125, -10.1953125, -3.0810546875, 2.3129770755767822, -4.496183395385742, 2.2671756744384766, 2.25, -34.650001525878906, -80.69999694824219, 277000000.0
77309.0, 86732.0, 374.0, -2.0654296875, -10.01953125, -2.9443359375, -2.2595419883728027, -1.7862595319747925, 3.068702220916748, 2.700000047683716, -33.150001525878906, -79.3499984741211, 277012704.0
77320.0, 86748.0, 383.0, -2.0361328125, -10.13671875, -2.9931640625, -4.496183395385742, 1.0, 0.7938931584358215, 3.450000047683716, -33.900001525878906, -80.0999984741211, 277027328.0
77320.0, 86749.0, 376.0, -2.0361328125, -10.0048828125, -2.67578125, -4.809160232543945, 1.3587785959243774, -1.0610686540603638, 1.9500000476837158, -35.849998474121094, -80.0999984741211, 277029312.0
77321.0, 86754.0, 375.0, -2.041015625, -10.263671875, -2.7880859375, -5.702290058135986, 3.778625965118408, -3.0992367267608643, 1.649999976158142, -32.849998474121094, -80.69999694824219, 277042976.0
77327.0, 86761.0, 381.0, -2.0751953125, -10.0732421875, -2.9296875, -2.923664093017578, 2.610687017440796, -0.6412214040756226, 1.649999976158142, -32.849998474121094, -80.69999694824219, 277044928.0
77324.0, 86766.0, 375.0, -1.9140625, -10.0927734375, -2.9638671875, -3.2595419883728027, 3.1221373081207275, 0.20610687136650085, 1.0499999523162842, -35.25, -79.5, 277058592.0
77324.0, 86765.0, 378.0, -1.8798828125, -10.0, -2.9345703125, -3.5190839767456055, 3.541984796524048, -0.13740457594394684, 1.0499999523162842, -35.25, -79.5, 277059584.0
77332.0, 86781.0, 375.0, -1.73828125, -10.2197265625, -3.1103515625, -3.328244209289551, -1.1145038604736328, 0.007633587811142206, 2.0999999046325684, -33.75, -81.0, 277073248.0
77335.0, 86782.0, 379.0, -1.8603515625, -10.3125, -2.98828125, -2.007633686065674, 2.0458016395568848, -3.0152671337127686, 2.0999999046325684, -33.75, -81.0, 277087904.0
77341.0, 86790.0, 375.0, -1.8408203125, -10.390625, -2.9345703125, -2.0839693546295166, 2.931297779083252, -0.8396946787834167, 1.649999976158142, -35.849998474121094, -80.0999984741211, 277102528.0
77335.0, 86813.0, 379.0, -1.9873046875, -10.0927734375, -3.0712890625, -1.2519084215164185, 1.7175573110580444, 2.5114502906799316, 1.7999999523162842, -33.75, -79.80000305175781, 277118176.0
77346.0, 86814.0, 381.0, -1.826171875, -10.1318359375, -3.0615234375, -5.076335906982422, 2.6335878372192383, 2.4045801162719727, 1.7999999523162842, -33.75, -79.80000305175781, 277132800.0
77346.0, 86825.0, 385.0, -2.1923828125, -9.84375, -2.9296875, -0.2671755850315094, 1.4809160232543945, 1.4885495901107788, 2.549999952316284, -36.0, -79.5, 277147456.0
77346.0, 86837.0, 385.0, -2.0556640625, -9.8974609375, -2.8955078125, -5.541984558105469, 1.5190839767456055, -1.198473334312439, 2.25, -34.349998474121094, -80.0999984741211, 277163072.0
77352.0, 86842.0, 389.0, -1.953125, -9.8974609375, -2.83203125, -0.4198473393917084, -3.0534350872039795, -0.732824444770813, 2.25, -34.349998474121094, -80.0999984741211, 277165024.0
77362.0, 86857.0, 383.0, -1.9384765625, -10.0390625, -2.890625, 1.0916030406951904, -0.5648854970932007, 1.5496183633804321, 3.9000000953674316, -33.0, -79.80000305175781, 277178720.0
77355.0, 86853.0, 390.0, -2.12890625, -10.1025390625, -2.83203125, -2.70992374420166, 0.19083969295024872, -2.748091697692871, 3.9000000953674316, -33.0, -79.80000305175781, 277179680.0
77350.0, 86863.0, 388.0, -1.8603515625, -10.25390625, -2.802734375, -1.8702290058135986, -0.6183205842971802, 0.9541984796524048, 1.649999976158142, -33.599998474121094, -80.69999694824219, 277193344.0
77367.0, 86877.0, 387.0, -1.845703125, -10.341796875, -2.87109375, -9.0, 3.2671756744384766, -0.5877862572669983, 2.25, -33.599998474121094, -80.4000015258789, 277208000.0
77370.0, 86881.0, 385.0, -1.7529296875, -10.390625, -2.8662109375, 0.4656488597393036, -0.290076345205307, -0.4351145029067993, 2.25, -33.599998474121094, -80.4000015258789, 277209952.0
77374.0, 86881.0, 392.0, -1.73828125, -10.302734375, -3.056640625, -4.061068534851074, 2.030534267425537, 2.8091602325439453, 2.25, -33.599998474121094, -80.4000015258789, 277223616.0
77378.0, 86899.0, 394.0, -1.6943359375, -10.2880859375, -3.0712890625, -4.190839767456055, 3.5267176628112793, 1.305343508720398, 2.25, -33.599998474121094, -80.4000015258789, 277224608.0
77377.0, 86901.0, 388.0, -1.884765625, -10.126953125, -3.0224609375, -1.7175573110580444, -0.015267175622284412, 4.549618244171143, 2.549999952316284, -34.20000076293945, -78.0, 277238272.0
77375.0, 86918.0, 389.0, -1.97265625, -10.0732421875, -2.9541015625, -5.0916032791137695, 2.580152750015259, 1.7862595319747925, 2.700000047683716, -35.849998474121094, -79.3499984741211, 277252928.0
77379.0, 86921.0, 383.0, -1.875, -10.0830078125, -3.18359375, 0.3664122223854065, 2.4809160232543945, 2.7251908779144287, 2.700000047683716, -35.849998474121094, -79.3499984741211, 277254880.0
77386.0, 86928.0, 383.0, -1.9287109375, -9.98046875, -3.0810546875, -4.809160232543945, 1.160305380821228, 3.1603052616119385, 2.700000047683716, -33.900001525878906, -80.0999984741211, 277268544.0
77381.0, 86934.0, 380.0, -2.080078125, -10.0732421875, -2.8125, -2.8015267848968506, 3.893129825592041, 1.0305343866348267, 2.700000047683716, -33.900001525878906, -80.0999984741211, 277269536.0
77399.0, 86939.0, 389.0, -1.9677734375, -10.0439453125, -3.0126953125, -0.7557252049446106, 4.56488561630249, -0.1221374049782753, 2.700000047683716, -35.099998474121094, -80.0999984741211, 277283200.0
77396.0, 86960.0, 387.0, -1.97265625, -9.9853515625, -2.8515625, -0.7709923982620239, -1.0839694738388062, 2.717557191848755, 3.299999952316284, -35.70000076293945, -78.44999694824219, 277297856.0
77397.0, 86957.0, 382.0, -2.041015625, -10.048828125, -2.79296875, -0.7633587718009949, 4.4122138023376465, -1.503816843032837, 3.299999952316284, -35.70000076293945, -78.44999694824219, 277312512.0
77405.0, 86955.0, 390.0, -2.1044921875, -10.0634765625, -2.919921875, -2.3358778953552246, 2.137404680252075, -2.4427480697631836, 3.299999952316284, -35.70000076293945, -78.44999694824219, 277315424.0
77407.0, 86953.0, 384.0, -1.9580078125, -10.1318359375, -2.841796875, -2.70992374420166, 3.419847249984741, 0.5419847369194031, 2.25, -32.849998474121094, -79.3499984741211, 277328128.0
77386.0, 86939.0, 380.0, -1.943359375, -9.9853515625, -2.861328125, -1.2748091220855713, 1.389312982559204, 1.1374045610427856, 3.450000047683716, -33.150001525878906, -78.5999984741211, 277342784.0
77384.0, 86927.0, 386.0, -2.021484375, -10.0830078125, -2.9736328125, 0.8015267252922058, 0.8778625726699829, 0.9160305261611938, 3.5999999046325684, -34.95000076293945, -79.5, 277345696.0
77379.0, 86902.0, 383.0, -1.9873046875, -10.0830078125, -2.9296875, -1.534351110458374, 1.3816794157028198, 1.4809160232543945, 3.450000047683716, -33.900001525878906, -78.1500015258789, 277358400.0
77362.0, 86866.0, 385.0, -1.8310546875, -10.2197265625, -3.0078125, 0.17557251453399658, 0.6106870174407959, 0.038167938590049744, 3.5999999046325684, -34.95000076293945, -78.75, 277373056.0
77345.0, 86823.0, 391.0, -1.9580078125, -10.1220703125, -3.0224609375, -2.7938930988311768, -1.2519084215164185, -2.671755790710449, 1.350000023841858, -35.25, -79.5, 277387680.0
77335.0, 86790.0, 387.0, -1.8701171875, -10.048828125, -2.9052734375, -1.8244274854660034, 0.2442748099565506, 0.4656488597393036, 3.0, -32.849998474121094, -78.9000015258789, 277402336.0
77331.0, 86778.0, 381.0, -1.93359375, -10.1611328125, -2.978515625, -0.732824444770813, 2.9007632732391357, 2.641221284866333, 3.9000000953674316, -35.70000076293945, -78.44999694824219, 277405280.0
77316.0, 86758.0, 387.0, -1.8994140625, -10.322265625, -3.0419921875, -1.3358778953552246, -0.5038167834281921, 0.8091602921485901, 4.199999809265137, -33.900001525878906, -77.55000305175781, 277417984.0
77319.0, 86760.0, 385.0, -1.982421875, -10.0244140625, -2.94921875, -1.877862572669983, 3.931297779083252, 0.5496183037757874, 4.199999809265137, -33.900001525878906, -77.55000305175781, 277419936.0
77318.0, 86747.0, 385.0, -1.884765625, -10.2685546875, -2.8857421875, -4.083969593048096, 0.4122137427330017, -1.6030534505844116, 5.400000095367432, -34.5, -79.5, 277433600.0
77313.0, 86737.0, 380.0, -1.875, -10.1513671875, -3.02734375, -4.206106662750244, 2.0534350872039795, -0.11450381577014923, 2.0999999046325684, -36.45000076293945, -79.5, 277434560.0
77302.0, 86735.0, 382.0, -2.0068359375, -10.05859375, -2.9443359375, -2.786259651184082, 2.648854970932007, -1.5267175436019897, 2.0999999046325684, -36.45000076293945, -79.5, 277448256.0
77311.0, 86727.0, 391.0, -2.1337890625, -10.1513671875, -2.958984375, -0.18320611119270325, 2.8702290058135986, 0.7633587718009949, 2.25, -34.650001525878906, -79.3499984741211, 277462880.0
77313.0, 86725.0, 386.0, -2.080078125, -10.078125, -3.0126953125, -2.7938930988311768, 1.122137427330017, -0.8931297659873962, 2.25, -34.650001525878906, -80.0999984741211, 277477536.0
77308.0, 86731.0, 384.0, -1.8115234375, -10.0830078125, -2.98828125, -0.5648854970932007, 1.4198473691940308, 4.358778476715088, 2.25, -34.650001525878906, -80.0999984741211, 277480480.0
77316.0, 86723.0, 381.0, -1.826171875, -10.1806640625, -3.0029296875, 1.4885495901107788, 2.8015267848968506, -1.0916030406951904, 1.0499999523162842, -35.70000076293945, -79.05000305175781, 277493152.0
77311.0, 86727.0, 382.0, -1.9677734375, -10.3564453125, -3.1201171875, -5.3053436279296875, 1.6870229244232178, -0.23664122819900513, 2.549999952316284, -34.20000076293945, -79.05000305175781, 277507808.0
77312.0, 86739.0, 381.0, -2.0068359375, -10.3173828125, -3.076171875, 0.25190839171409607, 1.770992398262024, 1.3129770755767822, 2.549999952316284, -34.20000076293945, -79.05000305175781, 277509760.0
77304.0, 86745.0, 380.0, -1.8310546875, -10.1953125, -3.06640625, 0.16030535101890564, -0.23664122819900513, 1.877862572669983, 2.549999952316284, -34.20000076293945, -79.05000305175781, 277523424.0
77319.0, 86756.0, 382.0, -1.8359375, -9.9658203125, -3.095703125, -1.1908396482467651, 2.351145029067993, 0.3206107020378113, 2.549999952316284, -34.20000076293945, -79.80000305175781, 277538080.0
77327.0, 86755.0, 384.0, -1.8896484375, -9.9755859375, -3.02734375, -3.3129770755767822, 2.3740458488464355, -1.9541984796524048, 2.549999952316284, -34.20000076293945, -79.80000305175781, 277540032.0
77321.0, 86766.0, 386.0, -2.0263671875, -10.146484375, -2.9736328125, -2.7022900581359863, 1.7938930988311768, -2.0152671337127686, 2.549999952316284, -33.0, -79.5, 277553696.0
77322.0, 86764.0, 384.0, -1.93359375, -10.0048828125, -2.9736328125, -4.938931465148926, 1.0763359069824219, -3.9083969593048096, 2.549999952316284, -33.0, -79.5, 277554688.0
77332.0, 86774.0, 377.0, -1.9873046875, -10.0439453125, -2.7783203125, -2.0229008197784424, 0.8931297659873962, -2.2290077209472656, 1.649999976158142, -35.54999923706055, -80.0999984741211, 277568352.0
77331.0, 86789.0, 381.0, -1.8212890625, -10.13671875, -2.841796875, 1.2595419883728027, -1.1679389476776123, -2.2061069011688232, 3.299999952316284, -34.95000076293945, -78.44999694824219, 277583008.0
77339.0, 86789.0, 378.0, -1.9091796875, -10.3369140625, -2.9248046875, -0.35877862572669983, 1.0229008197784424, -2.328244209289551, 3.0, -34.349998474121094, -79.6500015258789, 277584960.0
77336.0, 86797.0, 379.0, -1.943359375, -10.3173828125, -2.9248046875, -3.717557191848755, 3.4503817558288574, -1.3740458488464355, 2.549999952316284, -34.5, -79.80000305175781, 277598624.0
77339.0, 86802.0, 388.0, -1.9384765625, -10.244140625, -2.9150390625, 0.7633587718009949, 0.40458014607429504, 0.3893129825592041, 2.0999999046325684, -34.5, -78.75, 277613280.0
77340.0, 86807.0, 387.0, -1.97265625, -10.1220703125, -2.9541015625, -1.587786316871643, -0.04580152779817581, 0.32824426889419556, 1.649999976158142, -34.349998474121094, -80.69999694824219, 277627936.0
77341.0, 86803.0, 385.0, -1.9384765625, -10.078125, -2.9150390625, -7.297709941864014, -0.35114502906799316, 0.09923664480447769, 1.649999976158142, -34.349998474121094, -80.69999694824219, 277629888.0
77344.0, 86811.0, 379.0, -1.875, -10.0439453125, -2.9833984375, -3.14503812789917, 1.801526665687561, -0.2442748099565506, 1.7999999523162842, -33.29999923706055, -79.80000305175781, 277643552.0
77338.0, 86816.0, 387.0, -1.953125, -9.8974609375, -3.115234375, -4.5190839767456055, 5.427480697631836, -1.2824428081512451, 1.7999999523162842, -33.29999923706055, -79.80000305175781, 277645504.0
77339.0, 86812.0, 386.0, -1.9189453125, -10.0048828125, -3.0810546875, -1.0916030406951904, 1.8625954389572144, -0.9389312863349915, 2.25, -34.349998474121094, -79.6500015258789, 277658208.0
77348.0, 86827.0, 388.0, -1.97265625, -10.0732421875, -3.0908203125, -3.6335878372192383, 4.6946563720703125, -2.6183207035064697, 3.299999952316284, -33.75, -80.25, 277672864.0
77350.0, 86827.0, 380.0, -1.923828125, -10.2197265625, -3.0712890625, 0.4656488597393036, 0.7709923982620239, 1.5267175436019897, 1.0499999523162842, -36.0, -78.44999694824219, 277687488.0
77351.0, 86834.0, 384.0, -2.041015625, -10.1025390625, -3.06640625, -3.038167953491211, -0.8931297659873962, 1.9083969593048096, 2.25, -36.599998474121094, -80.0999984741211, 277702144.0
77353.0, 86834.0, 389.0, -1.904296875, -10.048828125, -2.98828125, 1.6488549709320068, -1.3129770755767822, 5.122137546539307, 2.25, -36.599998474121094, -80.0999984741211, 277706048.0
77353.0, 86844.0, 388.0, -1.884765625, -10.029296875, -2.91015625, -1.198473334312439, 3.9160306453704834, -1.1297709941864014, 3.450000047683716, -33.900001525878906, -80.0999984741211, 277717760.0
77360.0, 86856.0, 394.0, -1.8603515625, -10.0634765625, -2.978515625, -3.6641221046447754, -1.3206106424331665, 2.0916030406951904, 3.450000047683716, -33.900001525878906, -80.0999984741211, 277720704.0
77355.0, 86853.0, 386.0, -2.0263671875, -10.0390625, -2.9296875, -1.770992398262024, 2.0152671337127686, -2.778625965118408, 2.8499999046325684, -34.5, -79.80000305175781, 277733408.0
77362.0, 86864.0, 395.0, -1.85546875, -10.2001953125, -2.9443359375, 0.6641221642494202, 0.8702290058135986, -1.6335878372192383, 2.8499999046325684, -34.5, -79.80000305175781, 277748032.0
77364.0, 86871.0, 394.0, -2.08984375, -10.0732421875, -2.96875, -6.2366414070129395, 2.8320610523223877, -1.3358778953552246, 2.8499999046325684, -34.5, -79.80000305175781, 277750976.0
77363.0, 86884.0, 389.0, -2.0263671875, -10.244140625, -2.9345703125, -3.114503860473633, 0.7862595319747925, 0.45038166642189026, 1.9500000476837158, -35.099998474121094, -79.6500015258789, 277763680.0
77358.0, 86889.0, 388.0, -1.9873046875, -10.25390625, -2.8857421875, -5.015267372131348, -1.0610686540603638, 2.610687017440796, 1.9500000476837158, -35.099998474121094, -79.6500015258789, 277765632.0
77378.0, 86893.0, 390.0, -1.9775390625, -10.1123046875, -3.046875, -6.656488418579102, 3.9770991802215576, -0.9770992398262024, 2.549999952316284, -33.75, -81.0, 277778304.0
77376.0, 86912.0, 391.0, -1.826171875, -10.0634765625, -3.0126953125, -1.961832046508789, 2.824427604675293, 0.20610687136650085, 3.0, -33.900001525878906, -80.4000015258789, 277792960.0
77375.0, 86916.0, 393.0, -1.806640625, -10.0048828125, -2.958984375, -4.633587837219238, 3.7022900581359863, -0.694656491279602, 3.0, -33.900001525878906, -80.4000015258789, 277795904.0
77390.0, 86931.0, 391.0, -2.060546875, -10.01953125, -3.0126953125, -2.969465732574463, 0.8244274854660034, 0.20610687136650085, 1.9500000476837158, -34.349998474121094, -78.5999984741211, 277808608.0
77388.0, 86939.0, 392.0, -1.904296875, -10.068359375, -2.9443359375, -1.0534350872039795, 3.419847249984741, -1.8244274854660034, 1.9500000476837158, -34.349998474121094, -78.5999984741211, 277810560.0
77382.0, 86939.0, 390.0, -1.9580078125, -10.166015625, -2.998046875, -1.3511450290679932, -1.0610686540603638, -2.14503812789917, 2.700000047683716, -34.650001525878906, -79.6500015258789, 277823232.0
77389.0, 86959.0, 399.0, -1.9287109375, -10.2099609375, -2.91015625, -3.389312982559204, 1.2137404680252075, -1.503816843032837, 2.700000047683716, -34.650001525878906, -79.6500015258789, 277837888.0
77397.0, 86972.0, 390.0, -1.904296875, -10.185546875, -2.9052734375, 0.12977099418640137, 0.8244274854660034, 0.9389312863349915, 1.9500000476837158, -34.650001525878906, -80.69999694824219, 277852544.0
77405.0, 86988.0, 393.0, -1.7724609375, -10.244140625, -2.9296875, 0.3893129825592041, 0.19083969295024872, 5.076335906982422, 2.549999952316284, -34.5, -79.5, 277867200.0
77404.0, 86986.0, 394.0, -1.9482421875, -10.126953125, -3.0615234375, -0.39694657921791077, -2.572519063949585, 1.6259541511535645, 1.9500000476837158, -35.849998474121094, -78.1500015258789, 277870112.0
77409.0, 86993.0, 392.0, -1.9482421875, -10.0244140625, -2.96875, -3.9007632732391357, 0.8702290058135986, 3.2061069011688232, 1.0499999523162842, -33.75, -78.75, 277882816.0
77413.0, 86994.0, 394.0, -2.099609375, -10.087890625, -2.8564453125, 0.290076345205307, -2.389312982559204, 3.641221284866333, 1.0499999523162842, -33.75, -78.75, 277885728.0
77416.0, 87028.0, 390.0, -1.826171875, -9.9853515625, -2.9833984375, -5.076335906982422, 2.9007632732391357, -2.648854970932007, 2.0999999046325684, -34.20000076293945, -82.05000305175781, 277913088.0
77424.0, 87038.0, 392.0, -1.9677734375, -10.068359375, -3.0517578125, -2.786259651184082, 0.07633587718009949, 0.8244274854660034, 2.0999999046325684, -34.20000076293945, -82.05000305175781, 277927744.0
77439.0, 87044.0, 390.0, -1.93359375, -10.1708984375, -3.173828125, -2.6183207035064697, 1.1908396482467651, -0.06870228797197342, 2.25, -34.349998474121094, -80.4000015258789, 277943360.0
77428.0, 87032.0, 394.0, -1.8359375, -10.3173828125, -3.0859375, -3.4427480697631836, 4.068702220916748, -1.839694619178772, 1.9500000476837158, -34.650001525878906, -80.0999984741211, 277958016.0
77422.0, 87033.0, 389.0, -1.8798828125, -10.2880859375, -3.0419921875, -5.946564674377441, 2.9389312267303467, 0.09923664480447769, 1.9500000476837158, -35.099998474121094, -80.69999694824219, 277960928.0
77424.0, 87024.0, 386.0, -1.865234375, -10.2197265625, -3.10546875, -1.0534350872039795, 0.1221374049782753, 1.106870174407959, 1.9500000476837158, -35.099998474121094, -80.69999694824219, 277973632.0
77412.0, 86996.0, 393.0, -1.69921875, -10.205078125, -3.134765625, 0.04580152779817581, -1.2442748546600342, 5.503816604614258, 2.8499999046325684, -34.5, -80.25, 277988288.0
77411.0, 86986.0, 392.0, -1.8603515625, -10.2099609375, -3.0078125, 1.1297709941864014, 2.862595319747925, 1.4885495901107788, 2.8499999046325684, -34.5, -80.25, 277990240.0
77402.0, 86966.0, 383.0, -1.953125, -10.029296875, -2.9345703125, -3.717557191848755, 1.8854961395263672, 4.381679534912109, 3.0, -35.099998474121094, -79.6500015258789, 278002944.0
77384.0, 86932.0, 385.0, -2.060546875, -10.0146484375, -2.958984375, -0.18320611119270325, 2.755725145339966, 0.8091602921485901, 3.5999999046325684, -34.5, -80.25, 278018560.0
77381.0, 86913.0, 386.0, -2.060546875, -9.951171875, -2.8662109375, -1.3816794157028198, -0.5190839767456055, 1.9923664331436157, 3.5999999046325684, -34.20000076293945, -78.75, 278020512.0
77373.0, 86889.0, 385.0, -2.0166015625, -10.048828125, -2.9296875, -2.85496187210083, -1.1755725145339966, 4.27480936050415, 1.2000000476837158, -34.650001525878906, -78.5999984741211, 278033216.0
77358.0, 86872.0, 386.0, -2.0166015625, -10.1220703125, -2.8466796875, -3.6946566104888916, 0.4580152630805969, 0.8931297659873962, 2.25, -33.150001525878906, -78.9000015258789, 278047840.0
77348.0, 86846.0, 389.0, -1.923828125, -10.0830078125, -2.8955078125, -4.259541988372803, 3.8015267848968506, -2.671755790710449, 3.450000047683716, -34.349998474121094, -79.3499984741211, 278062496.0
77344.0, 86841.0, 388.0, -2.0166015625, -10.2197265625, -3.076171875, -5.083969593048096, 4.007633686065674, -0.45038166642189026, 1.9500000476837158, -34.349998474121094, -78.9000015258789, 278077152.0
77344.0, 86841.0, 386.0, -1.9921875, -10.3369140625, -2.998046875, -2.1679389476776123, 4.7633585929870605, -1.0152671337127686, 3.5999999046325684, -33.75, -77.69999694824219, 278080064.0
77348.0, 86843.0, 387.0, -1.8212890625, -10.2197265625, -3.0908203125, -0.030534351244568825, -1.3435114622116089, 0.04580152779817581, 0.8999999761581421, -35.54999923706055, -79.6500015258789, 278092768.0
77352.0, 86834.0, 384.0, -1.8896484375, -10.224609375, -3.1298828125, -5.221374034881592, 3.648854970932007, -2.9389312267303467, 0.8999999761581421, -35.54999923706055, -79.6500015258789, 278095712.0
77339.0, 86835.0, 384.0, -1.85546875, -10.341796875, -3.2470703125, 0.7099236845970154, -0.35877862572669983, 1.8702290058135986, 3.0, -33.599998474121094, -80.4000015258789, 278108384.0
77343.0, 86833.0, 385.0, -1.875, -10.185546875, -3.1494140625, -3.6641221046447754, 2.3740458488464355, -3.5496182441711426, 2.25, -34.349998474121094, -78.9000015258789, 278123040.0
77344.0, 86830.0, 382.0, -1.865234375, -10.17578125, -2.9541015625, 0.19083969295024872, 0.5114504098892212, -0.15267175436019897, 2.25, -34.349998474121094, -78.9000015258789, 278125984.0
77342.0, 86822.0, 380.0, -1.884765625, -10.0244140625, -2.9443359375, -2.992366313934326, -0.4198473393917084, -1.7022900581359863, 2.700000047683716, -33.900001525878906, -78.9000015258789, 278138656.0
77340.0, 86837.0, 386.0, -1.9482421875, -10.185546875, -3.0517578125, -2.175572633743286, 0.9083969593048096, -1.5954198837280273, 2.700000047683716, -33.900001525878906, -78.9000015258789, 278140640.0
77348.0, 86842.0, 380.0, -1.904296875, -10.1416015625, -2.8173828125, 1.2137404680252075, 1.496183156967163, 2.244274854660034, 2.700000047683716, -33.900001525878906, -78.9000015258789, 278153312.0
77357.0, 86855.0, 383.0, -1.9189453125, -10.05859375, -2.7587890625, -4.1297712326049805, 4.5877861976623535, -0.16030535101890564, 4.349999904632568, -33.75, -79.5, 278167968.0
77353.0, 86858.0, 384.0, -1.9482421875, -10.029296875, -2.7734375, -1.0076335668563843, 0.15267175436019897, 0.12977099418640137, 4.349999904632568, -33.75, -79.5, 278170912.0
77350.0, 86874.0, 379.0, -2.0166015625, -10.087890625, -2.8662109375, -3.2748091220855713, 2.465648889541626, -2.1297709941864014, 3.450000047683716, -34.650001525878906, -77.8499984741211, 278183584.0
77355.0, 86871.0, 382.0, -1.8359375, -10.0048828125, -2.802734375, -3.458015203475952, 1.1145038604736328, -2.3816792964935303, 3.450000047683716, -34.650001525878906, -77.8499984741211, 278185536.0
77359.0, 86880.0, 382.0, -2.041015625, -10.13671875, -2.9638671875, 2.114503860473633, 4.6259541511535645, -2.6183207035064697, 2.0999999046325684, -35.25, -78.44999694824219, 278198240.0
77372.0, 86889.0, 390.0, -1.8994140625, -10.1953125, -3.017578125, 2.603053331375122, -0.3358778655529022, 1.1908396482467651, 2.700000047683716, -34.349998474121094, -79.3499984741211, 278212896.0
77362.0, 86903.0, 386.0, -1.9140625, -10.107421875, -3.0517578125, -2.2595419883728027, 3.824427604675293, -2.1679389476776123, 1.2000000476837158, -34.650001525878906, -79.3499984741211, 278243168.0
77370.0, 86908.0, 383.0, -2.08984375, -10.068359375, -2.9736328125, -0.4656488597393036, 1.6793893575668335, 1.2824428081512451, 1.7999999523162842, -34.95000076293945, -79.05000305175781, 278257824.0
77363.0, 86907.0, 392.0, -1.9677734375, -10.146484375, -2.998046875, -3.358778715133667, 0.221374049782753, -0.4351145029067993, 3.0, -32.849998474121094, -78.5999984741211, 278272448.0
77374.0, 86915.0, 390.0, -1.8994140625, -10.0830078125, -2.939453125, -2.29007625579834, 3.6183207035064697, -2.9770991802215576, 2.8499999046325684, -34.20000076293945, -78.75, 278302720.0
77372.0, 86919.0, 393.0, -1.8212890625, -10.224609375, -2.8466796875, -1.1832060813903809, 0.30534350872039795, -0.1679389327764511, 3.5999999046325684, -33.75, -78.44999694824219, 278317376.0
77376.0, 86932.0, 391.0, -1.9384765625, -10.1318359375, -2.958984375, 1.0839694738388062, 0.45038166642189026, -1.1526718139648438, 2.0999999046325684, -34.5, -78.75, 278332992.0
77375.0, 86936.0, 396.0, -1.962890625, -10.107421875, -2.900390625, -2.0152671337127686, -2.3435113430023193, 0.1450381726026535, 3.75, -33.900001525878906, -77.8499984741211, 278335936.0
77381.0, 86933.0, 388.0, -1.875, -10.1123046875, -2.8662109375, -1.7938930988311768, 1.8091603517532349, -0.5267175436019897, 2.549999952316284, -34.5, -76.6500015258789, 278348640.0
77378.0, 86931.0, 390.0, -2.041015625, -10.0244140625, -2.978515625, -3.007633686065674, 0.8625954389572144, -2.9160306453704834, 2.549999952316284, -34.5, -76.6500015258789, 278350592.0
77380.0, 86948.0, 387.0, -1.9287109375, -10.0390625, -2.861328125, -1.7480915784835815, 3.0152671337127686, -2.458015203475952, 2.549999952316284, -34.5, -76.6500015258789, 278363296.0
77384.0, 86956.0, 391.0, -2.0458984375, -10.1708984375, -2.9052734375, 3.2595419883728027, 0.9770992398262024, -2.3816792964935303, 3.5999999046325684, -34.95000076293945, -79.05000305175781, 278377920.0
77387.0, 86955.0, 385.0, -1.8701171875, -10.2734375, -3.0224609375, -0.572519063949585, 0.5648854970932007, -2.3435113430023193, 3.5999999046325684, -34.95000076293945, -79.05000305175781, 278380864.0
77387.0, 86959.0, 385.0, -1.943359375, -10.29296875, -2.96875, -1.4351145029067993, -1.2137404680252075, 0.30534350872039795, 2.549999952316284, -34.5, -78.75, 278393568.0
77390.0, 86966.0, 392.0, -1.8505859375, -10.2880859375, -3.02734375, -1.9389313459396362, 1.267175555229187, -1.2137404680252075, 1.9500000476837158, -32.400001525878906, -79.6500015258789, 278407232.0
77393.0, 86971.0, 390.0, -1.7822265625, -10.263671875, -3.0517578125, -4.946564674377441, 2.0458016395568848, -1.2213740348815918, 1.9500000476837158, -32.400001525878906, -79.6500015258789, 278411136.0
77389.0, 86973.0, 392.0, -1.8798828125, -10.380859375, -3.154296875, -1.0992366075515747, 2.610687017440796, -0.2671755850315094, 3.299999952316284, -34.95000076293945, -79.5, 278422848.0
77392.0, 86980.0, 392.0, -1.796875, -10.5029296875, -3.14453125, -0.5572519302368164, -2.70992374420166, 2.6259541511535645, 3.299999952316284, -34.95000076293945, -79.5, 278425792.0
77398.0, 86986.0, 381.0, -1.8212890625, -10.4248046875, -3.0029296875, 3.2366411685943604, -2.717557191848755, 2.717557191848755, 3.0, -34.349998474121094, -78.9000015258789, 278438464.0
77402.0, 86990.0, 390.0, -1.7822265625, -10.2392578125, -3.0517578125, 0.030534351244568825, 0.28244274854660034, 2.9847328662872314, 3.0, -34.349998474121094, -78.9000015258789, 278441408.0
77401.0, 86997.0, 386.0, -1.982421875, -10.078125, -2.900390625, -1.038167953491211, -1.389312982559204, 0.9541984796524048, 3.0, -34.349998474121094, -78.9000015258789, 278453120.0
77400.0, 87006.0, 386.0, -2.0654296875, -9.98046875, -2.71484375, -3.3664121627807617, 0.694656491279602, -0.2977099120616913, 3.75, -34.650001525878906, -79.6500015258789, 278467776.0
77411.0, 87023.0, 390.0, -2.060546875, -9.912109375, -2.5537109375, -2.9770991802215576, -1.6259541511535645, -1.3282443284988403, 1.9500000476837158, -34.349998474121094, -78.9000015258789, 278482432.0
77404.0, 87033.0, 389.0, -1.982421875, -10.0146484375, -2.55859375, -2.786259651184082, -0.5190839767456055, -1.7022900581359863, 3.299999952316284, -35.25, -78.44999694824219, 278497056.0
77411.0, 87034.0, 391.0, -2.0703125, -10.0732421875, -2.783203125, 0.7633587718009949, 1.6870229244232178, -1.3664121627807617, 3.299999952316284, -35.25, -78.44999694824219, 278500992.0
77416.0, 87035.0, 390.0, -1.865234375, -10.1513671875, -2.9345703125, -4.312977313995361, 1.3282443284988403, -0.4580152630805969, 4.349999904632568, -33.0, -78.0, 278513664.0
77413.0, 87048.0, 397.0, -2.01171875, -10.37109375, -3.0517578125, -2.3740458488464355, 1.2442748546600342, -1.229007601737976, 2.0999999046325684, -34.20000076293945, -78.0, 278527328.0
77417.0, 87057.0, 389.0, -1.8896484375, -10.263671875, -3.02734375, -1.4045801162719727, 1.0992366075515747, 0.37404578924179077, 2.0999999046325684, -34.20000076293945, -78.0, 278531264.0
77419.0, 87064.0, 393.0, -1.69921875, -10.0927734375, -2.8759765625, -2.0992367267608643, 3.0229008197784424, 0.8320610523223877, 1.9500000476837158, -33.150001525878906, -77.55000305175781, 278542976.0
77423.0, 87061.0, 390.0, -1.8212890625, -10.2197265625, -3.037109375, -0.3435114622116089, 3.5114502906799316, -1.2977099418640137, 3.0, -34.650001525878906, -77.8499984741211, 278545888.0
77419.0, 87069.0, 395.0, -1.7724609375, -10.087890625, -3.0224609375, -0.3893129825592041, 0.038167938590049744, -0.7557252049446106, 3.0, -33.599998474121094, -79.3499984741211, 278558592.0
77419.0, 87079.0, 392.0, -1.884765625, -10.1025390625, -2.9736328125, -2.931297779083252, -1.2595419883728027, 0.15267175436019897, 3.0, -33.599998474121094, -79.3499984741211, 278560544.0
77424.0, 87078.0, 398.0, -1.728515625, -10.234375, -3.056640625, 0.16030535101890564, 3.748091697692871, -2.068702220916748, 3.299999952316284, -33.29999923706055, -78.0, 278573248.0
77426.0, 87075.0, 389.0, -1.982421875, -10.283203125, -2.9931640625, -3.6335878372192383, 2.8702290058135986, -2.4885497093200684, 2.0999999046325684, -33.75, -77.25, 278587904.0
77430.0, 87079.0, 391.0, -1.89453125, -10.1318359375, -2.900390625, -4.381679534912109, 3.748091697692871, -2.503816843032837, 2.0999999046325684, -33.75, -77.25, 278590816.0
77424.0, 87065.0, 388.0, -1.943359375, -10.224609375, -2.880859375, 0.6183205842971802, -1.0763359069824219, 0.9541984796524048, 3.75, -35.099998474121094, -78.1500015258789, 278603520.0
77419.0, 87062.0, 390.0, -1.9091796875, -9.9755859375, -2.880859375, -0.6335877776145935, 1.1145038604736328, -0.9847328066825867, 3.75, -35.099998474121094, -78.1500015258789, 278605472.0
77413.0, 87039.0, 388.0, -1.787109375, -10.087890625, -2.890625, 3.068702220916748, -0.030534351244568825, 0.38167938590049744, 1.2000000476837158, -33.599998474121094, -77.8499984741211, 278618176.0
77404.0, 87011.0, 391.0, -1.8896484375, -10.078125, -2.880859375, -1.7099236249923706, 2.9007632732391357, 0.030534351244568825, 2.0999999046325684, -33.29999923706055, -78.44999694824219, 278632800.0
77400.0, 86990.0, 388.0, -1.85546875, -10.166015625, -2.8662109375, -3.358778715133667, 4.465648651123047, -1.85496187210083, 3.450000047683716, -32.400001525878906, -78.1500015258789, 278635744.0
77378.0, 86964.0, 396.0, -1.7919921875, -10.3466796875, -2.890625, -3.679389238357544, 3.114503860473633, -1.839694619178772, 1.9500000476837158, -34.650001525878906, -78.9000015258789, 278648448.0
77373.0, 86927.0, 391.0, -1.9140625, -10.234375, -2.9296875, -2.580152750015259, -1.893129825592041, 0.6030534505844116, 3.0, -32.849998474121094, -78.9000015258789, 278662112.0
77370.0, 86925.0, 383.0, -1.85546875, -10.21484375, -2.9443359375, 0.28244274854660034, -2.4045801162719727, 0.38167938590049744, 3.0, -32.849998474121094, -79.3499984741211, 278666016.0
77358.0, 86899.0, 391.0, -1.650390625, -10.2490234375, -2.958984375, -4.2366414070129395, 0.3206107020378113, 1.106870174407959, 3.0, -32.849998474121094, -79.3499984741211, 278677728.0
77352.0, 86890.0, 388.0, -1.8896484375, -10.3125, -2.802734375, -1.7786259651184082, -2.2366411685943604, 1.8473283052444458, 3.0, -32.849998474121094, -79.3499984741211, 278680672.0
77343.0, 86889.0, 386.0, -2.03125, -10.244140625, -2.939453125, -4.748091697692871, 1.503816843032837, 1.2366411685943604, 2.700000047683716, -33.599998474121094, -77.8499984741211, 278693344.0
77347.0, 86882.0, 381.0, -1.953125, -10.0390625, -2.87109375, -0.3206107020378113, 5.549618244171143, -2.1984732151031494, 2.700000047683716, -34.349998474121094, -78.9000015258789, 278708000.0
77337.0, 86874.0, 381.0, -2.0849609375, -10.146484375, -2.7978515625, 1.160305380821228, 1.7251908779144287, 0.19083969295024872, 2.700000047683716, -34.349998474121094, -78.9000015258789, 278710944.0
77340.0, 86879.0, 380.0, -2.05078125, -10.0390625, -2.802734375, -2.572519063949585, 1.2900763750076294, 2.2977099418640137, 2.549999952316284, -33.29999923706055, -78.0, 278723648.0
77344.0, 86877.0, 386.0, -1.9482421875, -9.8876953125, -2.9638671875, 1.5114504098892212, 3.427480936050415, 0.19847328960895538, 3.75, -34.650001525878906, -77.55000305175781, 278738272.0
77339.0, 86873.0, 390.0, -1.9775390625, -10.1025390625, -2.91015625, -2.2748091220855713, 4.1984734535217285, -3.885496139526367, 2.8499999046325684, -34.5, -78.44999694824219, 278752928.0
77343.0, 86863.0, 390.0, -1.7724609375, -9.9658203125, -2.919921875, -5.251908302307129, 2.0534350872039795, -3.671755790710449, 2.8499999046325684, -34.5, -78.44999694824219, 278755872.0
77335.0, 86870.0, 381.0, -1.8310546875, -10.33203125, -2.7880859375, -2.5572519302368164, 4.526717662811279, -1.6030534505844116, 3.0, -33.599998474121094, -79.3499984741211, 278768544.0
77337.0, 86868.0, 384.0, -1.796875, -10.2734375, -2.880859375, -0.7786259651184082, 1.694656491279602, 2.748091697692871, 3.0, -33.599998474121094, -79.3499984741211, 278771488.0
77340.0, 86886.0, 384.0, -1.81640625, -10.3857421875, -2.9443359375, 0.8702290058135986, 3.4045801162719727, 0.42748090624809265, 2.8499999046325684, -33.75, -78.44999694824219, 278783200.0
77346.0, 86887.0, 383.0, -1.796875, -10.3271484375, -3.095703125, -1.4732824563980103, 2.038167953491211, 1.9389313459396362, 2.25, -32.849998474121094, -78.1500015258789, 278797856.0
77345.0, 86888.0, 385.0, -1.7529296875, -10.41015625, -3.056640625, -4.839694499969482, 2.007633686065674, 2.1908397674560547, 3.0, -33.599998474121094, -77.55000305175781, 278801760.0
77338.0, 86898.0, 383.0, -1.9873046875, -10.302734375, -3.0029296875, -1.4885495901107788, 2.923664093017578, -0.9541984796524048, 3.0, -33.599998474121094, -77.55000305175781, 278813472.0
77352.0, 86898.0, 391.0, -1.904296875, -10.0732421875, -3.0419921875, -4.282442569732666, 1.9923664331436157, 1.0152671337127686, 3.0, -33.599998474121094, -77.55000305175781, 278816416.0
77349.0, 86904.0, 386.0, -1.97265625, -10.0048828125, -3.046875, -3.0839695930480957, 1.9389313459396362, 2.4427480697631836, 1.350000023841858, -33.0, -78.44999694824219, 278828128.0
77360.0, 86922.0, 389.0, -1.8798828125, -9.9462890625, -2.890625, -2.0916030406951904, -2.1908397674560547, 2.4503817558288574, 3.9000000953674316, -33.29999923706055, -78.44999694824219, 278842784.0
77365.0, 86933.0, 389.0, -2.099609375, -9.873046875, -2.9150390625, -2.6946566104888916, 2.320610761642456, -3.5954198837280273, 4.349999904632568, -33.0, -78.44999694824219, 278858400.0
77363.0, 86940.0, 393.0, -1.8603515625, -9.990234375, -2.9296875, -4.664122104644775, 2.038167953491211, -2.9007632732391357, 3.0, -34.650001525878906, -78.5999984741211, 278861312.0
77368.0, 86947.0, 393.0, -2.0556640625, -10.302734375, -2.958984375, -4.931297779083252, 1.8091603517532349, -1.9541984796524048, 3.450000047683716, -33.599998474121094, -77.0999984741211, 278873056.0
77361.0, 86944.0, 392.0, -1.787109375, -10.2685546875, -2.8564453125, -1.6488549709320068, 1.6717556715011597, 1.305343508720398, 3.450000047683716, -33.599998474121094, -77.0999984741211, 278887680.0
77363.0, 86956.0, 392.0, -1.8994140625, -10.25390625, -2.8515625, 2.3435113430023193, 0.8396946787834167, 1.3435114622116089, 2.0999999046325684, -34.5, -77.25, 278902336.0
77367.0, 86965.0, 388.0, -1.8603515625, -10.283203125, -2.841796875, -2.9847328662872314, -0.3664122223854065, 3.1221373081207275, 2.0999999046325684, -34.5, -77.25, 278906240.0
77362.0, 86951.0, 385.0, -1.8896484375, -10.2880859375, -2.9296875, 0.5572519302368164, 3.3740458488464355, 4.5190839767456055, 3.450000047683716, -31.200000762939453, -78.5999984741211, 278917952.0
77366.0, 86960.0, 389.0, -1.89453125, -10.0732421875, -2.8515625, -1.770992398262024, 2.572519063949585, 4.114503860473633, 3.299999952316284, -34.95000076293945, -78.44999694824219, 278932608.0
77374.0, 86967.0, 388.0, -1.97265625, -10.009765625, -2.8466796875, -4.358778476715088, 0.4580152630805969, 3.1526718139648438, 3.299999952316284, -34.95000076293945, -78.44999694824219, 278936512.0
77370.0, 86966.0, 389.0, -1.923828125, -10.0146484375, -2.83203125, -2.1526718139648438, -1.7633588314056396, 1.0916030406951904, 2.700000047683716, -33.599998474121094, -78.1500015258789, 278948256.0
77373.0, 86972.0, 391.0, -1.9189453125, -9.9609375, -2.91015625, -3.534351110458374, 2.923664093017578, 1.8167939186096191, 2.0999999046325684, -33.75, -79.5, 278962880.0
77375.0, 86983.0, 390.0, -1.85546875, -9.86328125, -2.841796875, -2.6564886569976807, 4.160305500030518, -2.6564886569976807, 2.0999999046325684, -33.75, -79.5, 278966784.0
77382.0, 86981.0, 391.0, -1.8701171875, -10.029296875, -2.9541015625, -3.0916030406951904, 1.7480915784835815, -2.4122138023376465, 2.0999999046325684, -33.75, -79.5, 278978528.0
77375.0, 86986.0, 383.0, -1.884765625, -10.0341796875, -2.9833984375, -4.839694499969482, 3.3740458488464355, -3.6335878372192383, 3.75, -33.900001525878906, -78.1500015258789, 278992192.0
77378.0, 86993.0, 389.0, -1.923828125, -10.1806640625, -2.8515625, -1.4122138023376465, 0.13740457594394684, -0.015267175622284412, 3.75, -33.900001525878906, -78.1500015258789, 278996096.0
77381.0, 87000.0, 388.0, -1.85546875, -10.25390625, -2.978515625, -1.0534350872039795, -2.6870229244232178, -0.6641221642494202, 3.450000047683716, -34.650001525878906, -78.1500015258789, 279007808.0
77382.0, 87006.0, 395.0, -1.9287109375, -10.2294921875, -2.998046875, -2.2595419883728027, 0.19083969295024872, -2.007633686065674, 2.8499999046325684, -34.20000076293945, -79.5, 279011712.0
77392.0, 87007.0, 400.0, -1.875, -10.302734375, -3.056640625, -2.755725145339966, 0.9389312863349915, 1.229007601737976, 3.0, -33.900001525878906, -77.8499984741211, 279023424.0
77386.0, 87008.0, 394.0, -1.8896484375, -10.1953125, -2.8369140625, -4.122137546539307, 1.0992366075515747, 1.2366411685943604, 3.0, -33.900001525878906, -77.8499984741211, 279026368.0
77393.0, 87021.0, 393.0, -2.0068359375, -10.0341796875, -3.0908203125, -3.6870229244232178, 3.030534267425537, -1.9541984796524048, 3.299999952316284, -33.0, -76.94999694824219, 279038080.0
77393.0, 87031.0, 391.0, -1.9091796875, -10.0341796875, -2.8564453125, -1.7938930988311768, 5.27480936050415, 0.2748091518878937, 3.0, -33.900001525878906, -78.9000015258789, 279052736.0
77391.0, 87030.0, 395.0, -1.8505859375, -10.185546875, -2.8759765625, 0.7557252049446106, 3.030534267425537, -3.0839695930480957, 3.0, -33.900001525878906, -78.9000015258789, 279056640.0
77399.0, 87043.0, 398.0, -1.93359375, -10.078125, -2.8759765625, -2.4732823371887207, -0.221374049782753, 1.8854961395263672, 3.0, -33.900001525878906, -78.9000015258789, 279068352.0
77396.0, 87047.0, 399.0, -1.9140625, -10.0537109375, -2.7294921875, -7.832061290740967, 0.40458014607429504, -4.152671813964844, 4.199999809265137, -35.54999923706055, -78.1500015258789, 279082016.0
77400.0, 87057.0, 398.0, -1.953125, -10.0244140625, -2.8271484375, -4.267175674438477, 1.2213740348815918, -1.4885495901107788, 2.0999999046325684, -34.20000076293945, -77.25, 279097664.0
77401.0, 87060.0, 397.0, -1.9580078125, -10.2880859375, -2.9248046875, -1.893129825592041, -0.39694657921791077, 0.5419847369194031, 3.75, -32.400001525878906, -78.5999984741211, 279112320.0
77404.0, 87065.0, 397.0, -1.9189453125, -10.2490234375, -2.87109375, -6.160305500030518, 4.8015265464782715, -1.9236640930175781, 3.75, -32.400001525878906, -78.5999984741211, 279116224.0
77413.0, 87079.0, 403.0, -1.8603515625, -10.37109375, -2.96875, -1.427480936050415, -2.3740458488464355, 2.435114622116089, 2.8499999046325684, -33.75, -79.80000305175781, 279127936.0
77407.0, 87082.0, 394.0, -1.923828125, -10.25390625, -3.0615234375, -2.465648889541626, 4.2366414070129395, -0.6335877776145935, 2.8499999046325684, -33.75, -79.80000305175781, 279131840.0
77406.0, 87090.0, 398.0, -1.8359375, -10.283203125, -3.0126953125, -0.30534350872039795, 0.8091602921485901, 4.0, 3.450000047683716, -32.849998474121094, -77.8499984741211, 279143552.0
77406.0, 87090.0, 397.0, -1.865234375, -10.2978515625, -2.9443359375, -1.8625954389572144, 3.7022900581359863, 2.4427480697631836, 3.450000047683716, -32.849998474121094, -77.8499984741211, 279146496.0
77419.0, 87097.0, 399.0, -1.9091796875, -10.1708984375, -2.9736328125, -0.290076345205307, 2.1984732151031494, 0.18320611119270325, 3.450000047683716, -31.950000762939453, -78.9000015258789, 279158208.0
77417.0, 87113.0, 402.0, -1.9287109375, -10.048828125, -2.9150390625, 2.213740348815918, 0.9160305261611938, 2.389312982559204, 2.8499999046325684, -34.20000076293945, -80.55000305175781, 279172864.0
77426.0, 87115.0, 397.0, -1.9140625, -10.0927734375, -2.9296875, -2.14503812789917, 2.3435113430023193, 0.45038166642189026, 2.8499999046325684, -34.20000076293945, -80.55000305175781, 279176768.0
77425.0, 87127.0, 401.0, -1.9140625, -9.8046875, -2.939453125, -1.7557251453399658, -0.42748090624809265, 2.251908302307129, 3.5999999046325684, -33.75, -77.25, 279188480.0
77427.0, 87125.0, 404.0, -1.9775390625, -9.990234375, -2.98828125, 0.49618321657180786, 1.1374045610427856, 2.0839693546295166, 3.5999999046325684, -33.75, -77.25, 279191392.0
77431.0, 87137.0, 404.0, -1.97265625, -9.86328125, -2.939453125, -1.6641221046447754, -1.0305343866348267, -1.5801526308059692, 3.5999999046325684, -33.75, -77.25, 279203136.0
77436.0, 87141.0, 401.0, -2.0654296875, -10.21484375, -2.8515625, -1.7480915784835815, 3.6641221046447754, -5.473282337188721, 4.199999809265137, -33.599998474121094, -78.9000015258789, 279217760.0
77425.0, 87126.0, 393.0, -1.9140625, -10.419921875, -2.8955078125, -1.2137404680252075, 3.786259651184082, 4.4809160232543945, 3.0, -33.599998474121094, -76.80000305175781, 279247072.0
77412.0, 87107.0, 403.0, -1.8603515625, -10.1611328125, -2.998046875, -4.671755790710449, 4.251908302307129, -0.885496199131012, 3.0, -33.599998474121094, -76.80000305175781, 279251968.0
77410.0, 87092.0, 402.0, -1.7822265625, -10.15625, -2.8515625, -1.5954198837280273, -0.32824426889419556, 3.3816792964935303, 3.75, -33.150001525878906, -77.8499984741211, 279262688.0
77407.0, 87085.0, 405.0, -1.7333984375, -10.1123046875, -2.9736328125, -1.587786316871643, 0.580152690410614, 2.748091697692871, 3.75, -33.150001525878906, -77.8499984741211, 279266592.0
77396.0, 87058.0, 394.0, -1.9580078125, -10.029296875, -2.998046875, 0.022900763899087906, 1.2595419883728027, 0.6793892979621887, 4.349999904632568, -33.75, -77.25, 279278336.0
77385.0, 87023.0, 397.0, -1.8701171875, -9.90234375, -2.83203125, 3.2595419883728027, 1.0534350872039795, 0.5496183037757874, 4.349999904632568, -33.75, -77.25, 279292960.0
77380.0, 87012.0, 398.0, -2.001953125, -9.8876953125, -2.8076171875, -4.007633686065674, 1.2442748546600342, -0.290076345205307, 4.349999904632568, -33.75, -77.25, 279296864.0
77368.0, 87000.0, 395.0, -1.875, -10.078125, -2.8759765625, 1.2213740348815918, -0.5343511700630188, 1.3816794157028198, 3.299999952316284, -34.95000076293945, -78.0, 279308608.0
77372.0, 86991.0, 386.0, -1.9580078125, -10.1806640625, -2.822265625, -2.6259541511535645, 2.6946566104888916, -2.610687017440796, 3.299999952316284, -34.95000076293945, -78.0, 279311520.0
77358.0, 86962.0, 388.0, -2.060546875, -10.0390625, -2.9296875, -2.244274854660034, 2.679389238357544, -2.7633588314056396, 3.9000000953674316, -33.75, -76.94999694824219, 279323232.0
77354.0, 86964.0, 398.0, -1.85546875, -10.1611328125, -2.9248046875, -6.4122138023376465, 4.335877895355225, -0.6717557311058044, 1.7999999523162842, -34.5, -79.5, 279337888.0
77348.0, 86956.0, 390.0, -1.953125, -10.1708984375, -2.900390625, -3.007633686065674, 1.5648854970932007, 1.9694656133651733, 1.350000023841858, -35.25, -78.44999694824219, 279352544.0
77351.0, 86952.0, 390.0, -1.89453125, -10.400390625, -2.8857421875, -3.496183156967163, -0.9694656729698181, 1.877862572669983, 1.350000023841858, -35.25, -78.44999694824219, 279356448.0
77342.0, 86951.0, 391.0, -1.923828125, -10.2734375, -2.8759765625, -1.6259541511535645, 1.8244274854660034, 0.885496199131012, 3.299999952316284, -33.75, -78.44999694824219, 279368160.0
77347.0, 86948.0, 392.0, -1.89453125, -10.0927734375, -2.939453125, -2.85496187210083, 1.6412214040756226, -0.6488549709320068, 3.9000000953674316, -32.54999923706055, -78.75, 279382816.0
77351.0, 86945.0, 389.0, -1.93359375, -10.1416015625, -2.9833984375, -3.7328243255615234, 0.221374049782753, 0.022900763899087906, 3.9000000953674316, -33.29999923706055, -75.9000015258789, 279386720.0
77347.0, 86948.0, 387.0, -1.9091796875, -10.009765625, -2.998046875, -1.6717556715011597, 2.3816792964935303, -0.5496183037757874, 2.549999952316284, -33.29999923706055, -77.25, 279398432.0
77348.0, 86959.0, 386.0, -2.041015625, -10.01953125, -2.8662109375, -1.8167939186096191, -0.7862595319747925, 1.5954198837280273, 2.549999952316284, -33.29999923706055, -77.25, 279402336.0
77346.0, 86950.0, 391.0, -2.060546875, -10.0244140625, -2.8564453125, -0.580152690410614, -1.3740458488464355, 3.1603052616119385, 3.450000047683716, -34.349998474121094, -77.55000305175781, 279413088.0
77353.0, 86963.0, 390.0, -1.93359375, -9.990234375, -2.7880859375, -6.5190839767456055, 3.1984732151031494, 1.8091603517532349, 2.549999952316284, -34.5, -78.44999694824219, 279427744.0
77351.0, 86970.0, 394.0, -1.8701171875, -9.9853515625, -2.79296875, 2.389312982559204, 0.1450381726026535, -1.8625954389572144, 2.549999952316284, -34.5, -78.44999694824219, 279431648.0
77352.0, 86974.0, 386.0, -1.8603515625, -10.1025390625, -2.939453125, -4.6259541511535645, 2.503816843032837, -3.748091697692871, 3.450000047683716, -33.599998474121094, -78.5999984741211, 279443360.0
77353.0, 86986.0, 388.0, -1.9482421875, -10.4052734375, -2.9150390625, -0.732824444770813, -1.8091603517532349, -1.893129825592041, 3.0, -33.599998474121094, -78.1500015258789, 279458016.0
77366.0, 86996.0, 390.0, -1.89453125, -10.166015625, -2.841796875, 1.5114504098892212, 0.7251908183097839, 2.1679389476776123, 3.5999999046325684, -32.54999923706055, -78.0, 279472640.0
77360.0, 87001.0, 390.0, -1.6943359375, -10.3125, -2.900390625, -0.45038166642189026, 2.2061069011688232, 0.2442748099565506, 2.700000047683716, -35.54999923706055, -78.1500015258789, 279487296.0
77368.0, 87004.0, 391.0, -1.7822265625, -10.4736328125, -2.87109375, -1.0687023401260376, 1.85496187210083, 0.4656488597393036, 2.700000047683716, -35.54999923706055, -78.1500015258789, 279491200.0
77368.0, 87006.0, 390.0, -1.8017578125, -10.048828125, -2.87109375, 0.3435114622116089, 2.328244209289551, 2.29007625579834, 2.700000047683716, -35.54999923706055, -78.1500015258789, 279502944.0
77369.0, 87018.0, 392.0, -1.9921875, -10.0390625, -2.783203125, 2.0534350872039795, -2.175572633743286, 4.816793918609619, 2.549999952316284, -35.25, -77.25, 279517568.0
77371.0, 87028.0, 397.0, -2.1142578125, -9.921875, -2.666015625, -3.3740458488464355, -1.7938930988311768, -0.8702290058135986, 3.0, -35.099998474121094, -77.0999984741211, 279532224.0
77368.0, 87027.0, 395.0, -1.97265625, -9.8681640625, -2.8369140625, -2.7709922790527344, -1.305343508720398, 1.5267175436019897, 3.299999952316284, -34.20000076293945, -76.94999694824219, 279537120.0
77376.0, 87037.0, 389.0, -2.08984375, -10.009765625, -2.7197265625, -2.427480936050415, -0.9312977194786072, 1.3587785959243774, 3.5999999046325684, -34.5, -77.69999694824219, 279547840.0
77376.0, 87033.0, 394.0, -2.0751953125, -9.98046875, -2.9443359375, -4.465648651123047, 2.8396947383880615, -2.29007625579834, 3.5999999046325684, -34.5, -77.69999694824219, 279551744.0
77378.0, 87036.0, 387.0, -1.982421875, -10.1611328125, -2.8759765625, -3.2748091220855713, 3.1679389476776123, -0.06870228797197342, 1.9500000476837158, -32.400001525878906, -77.55000305175781, 279563488.0
77373.0, 87031.0, 391.0, -1.9775390625, -10.1318359375, -2.8271484375, 0.4198473393917084, -0.9007633328437805, -0.885496199131012, 1.9500000476837158, -32.400001525878906, -77.55000305175781, 279567392.0
77376.0, 87045.0, 394.0, -1.8115234375, -10.185546875, -2.83203125, -5.282442569732666, 3.4045801162719727, -2.1526718139648438, 2.549999952316284, -34.5, -77.69999694824219, 279578112.0
77377.0, 87048.0, 390.0, -1.8701171875, -10.2978515625, -3.0419921875, -1.961832046508789, -0.13740457594394684, 0.442748099565506, 2.549999952316284, -34.5, -77.69999694824219, 279592768.0
77381.0, 87051.0, 393.0, -1.7626953125, -10.2734375, -2.890625, -1.2748091220855713, 0.885496199131012, 0.5267175436019897, 2.549999952316284, -32.54999923706055, -77.69999694824219, 279596672.0
77385.0, 87052.0, 384.0, -1.8798828125, -10.33203125, -2.8662109375, -5.3053436279296875, 5.610687255859375, 0.5038167834281921, 3.299999952316284, -34.5, -78.0, 279608384.0
77377.0, 87050.0, 391.0, -1.8212890625, -10.0537109375, -2.87109375, -2.6335878372192383, 0.9541984796524048, 1.198473334312439, 3.299999952316284, -34.5, -78.0, 279612288.0
77386.0, 87062.0, 395.0, -1.97265625, -10.166015625, -2.9296875, -6.7633585929870605, 1.893129825592041, 1.3129770755767822, 3.0, -32.400001525878906, -77.8499984741211, 279623040.0
77384.0, 87070.0, 395.0, -1.7578125, -10.1123046875, -2.9931640625, -1.8473283052444458, 1.610687017440796, 1.1832060813903809, 1.9500000476837158, -34.349998474121094, -78.1500015258789, 279637696.0
77384.0, 87079.0, 390.0, -1.865234375, -10.2392578125, -2.9541015625, -2.0229008197784424, 2.3129770755767822, 2.0, 1.9500000476837158, -34.349998474121094, -78.1500015258789, 279641600.0
77387.0, 87082.0, 395.0, -1.875, -9.9609375, -2.9150390625, 1.229007601737976, 0.3129771053791046, 2.7938930988311768, 3.75, -34.650001525878906, -77.55000305175781, 279653312.0
77385.0, 87085.0, 391.0, -2.0458984375, -10.0439453125, -2.890625, -2.9465649127960205, 2.1297709941864014, -0.5038167834281921, 3.299999952316284, -34.5, -78.75, 279667968.0
77395.0, 87090.0, 397.0, -1.8994140625, -10.068359375, -2.7783203125, -1.732824444770813, 4.160305500030518, -3.824427604675293, 3.299999952316284, -34.5, -78.75, 279671872.0
77396.0, 87101.0, 394.0, -1.982421875, -10.0927734375, -2.8662109375, -2.9007632732391357, -0.06870228797197342, -0.4122137427330017, 2.8499999046325684, -33.75, -76.94999694824219, 279682624.0
77401.0, 87116.0, 397.0, -1.8212890625, -10.17578125, -2.861328125, 3.068702220916748, 2.1908397674560547, 1.1908396482467651, 3.450000047683716, -36.29999923706055, -77.55000305175781, 279698240.0
77407.0, 87120.0, 391.0, -1.73828125, -10.380859375, -2.9248046875, -1.6564885377883911, 3.679389238357544, 0.5038167834281921, 2.549999952316284, -33.0, -115.05000305175781, 279712896.0
77413.0, 87127.0, 400.0, -1.865234375, -10.1416015625, -2.8369140625, -4.137404441833496, 2.396946668624878, 1.8854961395263672, 2.549999952316284, -33.0, -76.6500015258789, 279716800.0
77402.0, 87131.0, 408.0, -1.8359375, -10.322265625, -2.91015625, -2.221374034881592, 4.312977313995361, 0.6870229244232178, 2.549999952316284, -33.0, -76.6500015258789, 279728512.0
77409.0, 87138.0, 394.0, -1.9873046875, -10.1708984375, -2.91015625, -0.5648854970932007, 0.2977099120616913, 4.27480936050415, 2.549999952316284, -33.0, -76.6500015258789, 279732416.0
77406.0, 87146.0, 396.0, -1.77734375, -10.05859375, -2.9833984375, -5.122137546539307, 1.160305380821228, 0.09160305559635162, 3.5999999046325684, -34.5, -76.19999694824219, 279743168.0
77412.0, 87163.0, 400.0, -1.865234375, -10.2099609375, -2.8515625, -3.6870229244232178, 0.8015267252922058, 3.3435113430023193, 3.450000047683716, -33.900001525878906, -76.80000305175781, 279757824.0
77419.0, 87163.0, 393.0, -1.7626953125, -10.0732421875, -2.9052734375, -3.5267176628112793, 0.5572519302368164, 0.3435114622116089, 3.5999999046325684, -33.29999923706055, -76.94999694824219, 279761728.0
77422.0, 87169.0, 397.0, -1.962890625, -10.087890625, -2.9345703125, -2.0152671337127686, 0.2748091518878937, 0.7938931584358215, 2.0999999046325684, -34.20000076293945, -76.19999694824219, 279773440.0
77421.0, 87171.0, 396.0, -1.8798828125, -10.0244140625, -2.861328125, -6.099236488342285, 2.29007625579834, -0.2977099120616913, 2.0999999046325684, -34.20000076293945, -76.19999694824219, 279777344.0
77419.0, 87182.0, 401.0, -2.01171875, -10.1220703125, -2.890625, -6.061068534851074, 1.5267175436019897, -0.09160305559635162, 3.299999952316284, -35.25, -77.69999694824219, 279788096.0
77428.0, 87193.0, 392.0, -1.875, -10.126953125, -2.8076171875, -2.824427604675293, 1.1755725145339966, -0.25190839171409607, 2.8499999046325684, -34.95000076293945, -77.25, 279802720.0
77429.0, 87207.0, 393.0, -1.8505859375, -10.0341796875, -2.8369140625, -3.2061069011688232, 0.580152690410614, -0.12977099418640137, 2.8499999046325684, -34.95000076293945, -77.25, 279818368.0
77431.0, 87212.0, 394.0, -1.9921875, -9.9755859375, -2.9248046875, -6.72519063949585, 3.3435113430023193, -3.4427480697631836, 3.450000047683716, -33.900001525878906, -78.1500015258789, 279822272.0
77430.0, 87219.0, 399.0, -1.8798828125, -10.25390625, -2.9443359375, 0.022900763899087906, 2.5496182441711426, -2.85496187210083, 2.8499999046325684, -34.5, -76.6500015258789, 279832992.0
77447.0, 87233.0, 390.0, -2.20703125, -9.736328125, -3.0126953125, -6.534351348876953, 6.183206081390381, 0.10687022656202316, 4.199999809265137, -33.900001525878906, -77.0999984741211, 279847648.0
77438.0, 87229.0, 391.0, -2.2802734375, -9.9169921875, -3.06640625, -7.832061290740967, 4.832061290740967, 2.427480936050415, 3.75, -35.099998474121094, -77.8499984741211, 279851552.0
77446.0, 87241.0, 398.0, -1.7236328125, -10.439453125, -2.79296875, 1.3435114622116089, 2.1297709941864014, -5.6946563720703125, 2.25, -33.900001525878906, -76.80000305175781, 279863296.0
77441.0, 87230.0, 397.0, -1.708984375, -10.4638671875, -3.2373046875, -6.778625965118408, 1.3282443284988403, 4.572519302368164, 4.349999904632568, -34.20000076293945, -78.44999694824219, 279877920.0
77434.0, 87235.0, 395.0, -1.806640625, -10.29296875, -3.2421875, -3.7404580116271973, -0.9160305261611938, 6.923664093017578, 4.349999904632568, -34.20000076293945, -78.44999694824219, 279881824.0
77441.0, 87227.0, 400.0, -1.8310546875, -10.107421875, -2.9052734375, 0.25190839171409607, 1.4885495901107788, 0.6564885377883911, 2.25, -35.099998474121094, -76.3499984741211, 279893568.0
77431.0, 87207.0, 395.0, -1.7724609375, -9.814453125, -3.06640625, -3.6870229244232178, 2.6259541511535645, 1.1755725145339966, 3.450000047683716, -32.849998474121094, -78.1500015258789, 279908192.0
77424.0, 87178.0, 394.0, -2.0849609375, -9.7900390625, -2.7734375, 0.007633587811142206, -0.221374049782753, 4.14503812789917, 1.7999999523162842, -33.0, -79.05000305175781, 279922848.0
77420.0, 87168.0, 390.0, -2.0458984375, -9.912109375, -2.67578125, 1.0076335668563843, -1.6870229244232178, 0.030534351244568825, 1.7999999523162842, -33.0, -79.05000305175781, 279927744.0
77407.0, 87147.0, 399.0, -2.0751953125, -10.1611328125, -2.880859375, -1.0458015203475952, 1.503816843032837, 0.847328245639801, 4.199999809265137, -33.599998474121094, -78.1500015258789, 279938464.0
77396.0, 87112.0, 390.0, -1.904296875, -10.2880859375, -2.705078125, -6.14503812789917, 1.7938930988311768, 1.0687023401260376, 2.8499999046325684, -33.75, -77.25, 279952160.0
77391.0, 87108.0, 391.0, -1.904296875, -10.3564453125, -2.83203125, -4.068702220916748, 2.389312982559204, -1.267175555229187, 2.8499999046325684, -33.75, -77.25, 279957024.0
77376.0, 87088.0, 389.0, -1.7431640625, -10.478515625, -2.8564453125, -4.160305500030518, 2.7404580116271973, -2.0916030406951904, 4.349999904632568, -33.29999923706055, -77.69999694824219, 279967776.0
77386.0, 87086.0, 396.0, -1.8310546875, -10.400390625, -2.822265625, -1.9312976598739624, 3.0610687732696533, 0.5648854970932007, 4.349999904632568, -33.29999923706055, -77.69999694824219, 279971680.0
77370.0, 87071.0, 396.0, -1.7626953125, -10.2099609375, -2.91015625, -5.603053569793701, -0.038167938590049744, 3.7633588314056396, 4.5, -34.349998474121094, -77.8499984741211, 279983392.0
77372.0, 87070.0, 392.0, -1.8994140625, -10.234375, -3.02734375, -6.068702220916748, 0.6717557311058044, 2.648854970932007, 4.5, -34.349998474121094, -77.8499984741211, 279987296.0
77368.0, 87062.0, 394.0, -1.7578125, -9.9365234375, -3.0126953125, -1.305343508720398, -0.22900763154029846, 3.862595319747925, 3.9000000953674316, -34.20000076293945, -78.44999694824219, 279998048.0
77363.0, 87050.0, 388.0, -1.9384765625, -9.94140625, -3.02734375, 1.3282443284988403, 1.9312976598739624, -1.267175555229187, 2.700000047683716, -35.099998474121094, -78.1500015258789, 280012704.0
77357.0, 87054.0, 390.0, -1.904296875, -9.98046875, -2.841796875, -2.106870174407959, 1.7862595319747925, -3.824427604675293, 2.700000047683716, -35.099998474121094, -78.1500015258789, 280027328.0
77366.0, 87057.0, 400.0, -1.923828125, -10.1708984375, -2.7783203125, 1.0763359069824219, -0.8320610523223877, 1.0610686540603638, 3.5999999046325684, -32.54999923706055, -77.25, 280041984.0
77359.0, 87050.0, 395.0, -1.9384765625, -10.166015625, -2.8076171875, -0.18320611119270325, -0.5190839767456055, 0.015267175622284412, 3.5999999046325684, -32.54999923706055, -77.25, 280047840.0
77362.0, 87052.0, 395.0, -1.9775390625, -10.322265625, -2.79296875, -0.20610687136650085, 0.2977099120616913, 0.49618321657180786, 3.450000047683716, -33.900001525878906, -77.8499984741211, 280058592.0
77363.0, 87048.0, 393.0, -1.923828125, -10.1220703125, -2.8564453125, -3.7328243255615234, 4.29007625579834, -2.0992367267608643, 2.8499999046325684, -34.20000076293945, -77.69999694824219, 280072256.0
77358.0, 87062.0, 387.0, -1.875, -10.21484375, -2.8076171875, -3.419847249984741, 1.0076335668563843, -0.21374045312404633, 2.8499999046325684, -34.20000076293945, -77.69999694824219, 280077152.0
77369.0, 87067.0, 386.0, -1.77734375, -10.3173828125, -2.958984375, -5.320610523223877, 3.0916030406951904, 0.5267175436019897, 4.650000095367432, -35.25, -77.25, 280087904.0
77363.0, 87070.0, 395.0, -1.89453125, -10.048828125, -2.9638671875, -3.4427480697631836, -0.7633587718009949, 2.9541985988616943, 3.299999952316284, -33.75, -77.69999694824219, 280102528.0
77361.0, 87071.0, 389.0, -1.9189453125, -10.205078125, -3.037109375, -3.137404680252075, 0.1221374049782753, 3.8702290058135986, 3.299999952316284, -33.75, -77.69999694824219, 280107424.0
77362.0, 87082.0, 395.0, -1.9287109375, -9.9365234375, -2.9931640625, -2.603053331375122, 1.1832060813903809, 0.7480915784835815, 3.299999952316284, -33.75, -77.69999694824219, 280118176.0
77366.0, 87085.0, 393.0, -1.826171875, -9.9853515625, -2.96875, -3.251908302307129, 1.8091603517532349, -4.038167953491211, 1.7999999523162842, -34.5, -76.94999694824219, 280132800.0
77367.0, 87080.0, 388.0, -1.767578125, -10.107421875, -2.8857421875, 3.106870174407959, 0.5038167834281921, -0.8625954389572144, 1.7999999523162842, -34.5, -76.94999694824219, 280137696.0
77365.0, 87100.0, 392.0, -1.8896484375, -10.1123046875, -2.9248046875, -2.541984796524048, 5.618320465087891, -2.893129825592041, 4.5, -33.150001525878906, -78.1500015258789, 280148448.0
77367.0, 87091.0, 386.0, -1.8505859375, -10.09765625, -2.87109375, 0.022900763899087906, 3.4045801162719727, -3.3053436279296875, 4.5, -33.900001525878906, -78.9000015258789, 280152352.0
77370.0, 87096.0, 396.0, -1.923828125, -10.224609375, -2.8271484375, -2.885496139526367, -1.6793893575668335, -0.442748099565506, 2.549999952316284, -34.20000076293945, -78.44999694824219, 280163072.0
77366.0, 87107.0, 391.0, -1.904296875, -10.166015625, -2.8173828125, -6.427481174468994, 0.9923664331436157, -1.5114504098892212, 3.0, -33.900001525878906, -78.1500015258789, 280177728.0
77373.0, 87119.0, 391.0, -1.8603515625, -10.21484375, -2.63671875, 0.18320611119270325, 3.183206081390381, -3.221374034881592, 2.8499999046325684, -33.0, -78.44999694824219, 280192384.0
77374.0, 87108.0, 398.0, -1.884765625, -10.1171875, -2.802734375, 0.6335877776145935, 1.3664121627807617, 0.7099236845970154, 2.549999952316284, -34.95000076293945, -78.44999694824219, 280207040.0
77372.0, 87116.0, 382.0, -2.001953125, -10.09765625, -2.9296875, -2.9007632732391357, 4.610687255859375, -0.9389312863349915, 3.9000000953674316, -34.20000076293945, -76.94999694824219, 280212896.0
77381.0, 87120.0, 393.0, -1.8017578125, -10.3173828125, -3.0126953125, 0.48091602325439453, -0.38167938590049744, 3.5496182441711426, 4.5, -34.650001525878906, -76.80000305175781, 280222656.0
77375.0, 87120.0, 389.0, -1.8701171875, -10.2734375, -2.9296875, -2.8778626918792725, 2.9007632732391357, 0.3206107020378113, 4.5, -34.650001525878906, -76.80000305175781, 280227552.0
77377.0, 87128.0, 394.0, -1.767578125, -10.205078125, -2.94921875, -0.05343511328101158, 4.4122138023376465, 1.5801526308059692, 5.849999904632568, -33.29999923706055, -77.25, 280238272.0
77385.0, 87126.0, 398.0, -1.865234375, -10.0390625, -2.900390625, -4.923664093017578, 3.9007632732391357, 2.320610761642456, 5.849999904632568, -33.29999923706055, -77.25, 280252928.0
77371.0, 87130.0, 377.0, -1.8115234375, -9.98046875, -2.8271484375, -1.0, 2.106870174407959, 3.396946668624878, 4.349999904632568, -34.20000076293945, -76.94999694824219, 280257824.0
77383.0, 87136.0, 392.0, -2.0361328125, -10.01953125, -2.98828125, 0.580152690410614, -0.2671755850315094, 3.5954198837280273, 4.349999904632568, -34.20000076293945, -76.94999694824219, 280268544.0
77385.0, 87143.0, 388.0, -1.904296875, -9.9169921875, -2.87109375, -0.15267175436019897, 0.7480915784835815, 0.015267175622284412, 4.349999904632568, -34.20000076293945, -76.94999694824219, 280272448.0
77381.0, 87149.0, 395.0, -1.953125, -9.9072265625, -2.8076171875, -3.70992374420166, 3.4503817558288574, -3.282442808151245, 4.650000095367432, -34.95000076293945, -78.0, 280283200.0
77392.0, 87178.0, 384.0, -1.689453125, -10.2099609375, -2.763671875, -4.603053569793701, 1.0458015203475952, 2.8778626918792725, 3.299999952316284, -33.75, -77.25, 280328128.0
77391.0, 87181.0, 388.0, -1.7822265625, -10.2783203125, -2.9833984375, -4.58015251159668, 1.0610686540603638, 0.6641221642494202, 3.299999952316284, -33.75, -77.25, 280342784.0
77390.0, 87185.0, 389.0, -1.953125, -10.0390625, -2.87109375, -3.5648856163024902, 1.8091603517532349, -0.47328245639801025, 1.649999976158142, -34.650001525878906, -76.80000305175781, 280347648.0
77392.0, 87187.0, 398.0, -1.8017578125, -10.126953125, -2.9052734375, -3.4427480697631836, 0.42748090624809265, 0.19847328960895538, 2.549999952316284, -34.5, -77.69999694824219, 280358400.0
77395.0, 87196.0, 392.0, -1.767578125, -10.107421875, -2.9052734375, -5.045801639556885, 0.9541984796524048, -1.8702290058135986, 2.549999952316284, -34.5, -77.69999694824219, 280362304.0
77396.0, 87201.0, 396.0, -2.021484375, -10.0634765625, -2.8369140625, -3.14503812789917, 2.5267176628112793, -0.022900763899087906, 3.9000000953674316, -34.5, -78.0, 280373056.0
77401.0, 87211.0, 398.0, -1.884765625, -9.9609375, -2.9296875, 2.2595419883728027, 1.3969465494155884, -0.22900763154029846, 4.199999809265137, -33.599998474121094, -78.5999984741211, 280387680.0
77408.0, 87217.0, 396.0, -1.9140625, -10.1513671875, -2.7734375, -2.351145029067993, 3.007633686065674, 0.5648854970932007, 2.8499999046325684, -33.29999923706055, -78.44999694824219, 280402336.0
77406.0, 87226.0, 393.0, -2.0166015625, -10.21484375, -2.890625, -1.1145038604736328, 0.442748099565506, 0.3893129825592041, 2.8499999046325684, -33.29999923706055, -78.44999694824219, 280407232.0
77404.0, 87237.0, 395.0, -1.8896484375, -10.0390625, -2.900390625, -2.3358778953552246, 0.6106870174407959, -2.0229008197784424, 2.700000047683716, -35.54999923706055, -77.55000305175781, 280417984.0
